-0.00254107
-0.00254107
-0.00254107
-0.00319177
-0.00416782
-0.00514387
-0.00677062
-0.00937343
-0.0119762
-0.0152297
-0.0175072
-0.0191339
-0.02011
-0.021086
-0.0227128
-0.0253156
-0.0282438
-0.0305212
-0.0324733
-0.0344254
-0.0363775
-0.038655
-0.0409324
-0.0425592
-0.0441859
-0.0448366
-0.0454873
-0.0454873
-0.0454873
-0.0454873
-0.0458127
-0.046138
-0.0467887
-0.0467887
-0.0458127
-0.0438606
-0.0409324
-0.0373536
-0.0334494
-0.0295452
-0.026617
-0.0236889
-0.021086
-0.0181579
-0.0155551
-0.0132776
-0.0106748
-0.00774668
-0.00416782
-0.000263614
0.00461664
0.00982225
0.0153532
0.0205588
0.0257644
0.0303193
0.0345489
0.0378024
0.0397545
0.0410559
0.0423573
0.0439841
0.0456108
0.0472376
0.048539
0.049515
0.0498404
0.0498404
0.049515
0.0491897
0.048539
0.0475629
0.0465869
0.0456108
0.0456108
0.0462615
0.0475629
0.0491897
0.0508164
0.0527685
0.0540699
0.0553713
0.056022
0.0569981
0.0586248
0.0612276
0.0651318
0.0693614
0.074567
0.0794473
0.0843275
0.0882317
0.0921359
0.0953894
0.0992936
0.103849
0.109705
0.115887
0.122719
0.129226
0.135733
0.14224
0.149398
0.157206
0.16534
0.174124
0.182909
0.191693
0.199827
0.207635
0.214142
0.219348
0.222927
0.225204
0.226831
0.228132
0.229434
0.231061
0.232687
0.234314
0.235941
0.237242
0.239194
0.240821
0.242448
0.243749
0.244075
0.244075
0.243749
0.244075
0.245051
0.246677
0.24863
0.250582
0.252208
0.252859
0.252534
0.250907
0.247979
0.244725
0.241472
0.238544
0.23529
0.231061
0.22618
0.220649
0.215118
0.209587
0.204382
0.199502
0.195272
0.191042
0.185837
0.17933
0.171196
0.161436
0.151024
0.140288
0.129551
0.118164
0.106126
0.0927866
0.0781459
0.062529
0.0456108
0.0273912
0.0088462
-0.00937343
-0.0275931
-0.045162
-0.0617549
-0.0770463
-0.0910364
-0.102749
-0.111859
-0.118691
-0.123571
-0.12715
-0.129102
-0.130404
-0.131055
-0.130729
-0.129102
-0.125849
-0.121945
-0.11739
-0.11316
-0.110232
-0.108605
-0.107955
-0.10828
-0.109581
-0.111859
-0.115438
-0.119342
-0.123246
-0.127801
-0.133007
-0.138538
-0.144719
-0.150901
-0.156107
-0.160987
-0.164891
-0.16847
-0.171398
-0.173025
-0.17335
-0.171723
-0.168144
-0.162939
-0.156107
-0.148298
-0.14049
-0.133983
-0.129102
-0.125849
-0.123897
-0.122921
-0.122595
-0.123571
-0.125524
-0.128777
-0.133332
-0.137887
-0.143092
-0.148949
-0.155456
-0.163264
-0.172049
-0.181484
-0.191244
-0.20068
-0.208813
-0.21532
-0.220526
-0.22443
-0.226708
-0.227684
-0.226382
-0.223454
-0.218574
-0.212067
-0.204258
-0.195474
-0.185388
-0.174977
-0.164566
-0.15513
-0.146346
-0.139514
-0.133983
-0.129428
-0.126174
-0.123246
-0.120969
-0.119017
-0.117064
-0.115438
-0.114787
-0.114787
-0.115763
-0.11739
-0.118691
-0.119667
-0.120318
-0.120318
-0.119667
-0.119342
-0.119342
-0.119993
-0.121294
-0.123246
-0.125849
-0.128452
-0.130729
-0.133007
-0.134959
-0.137562
-0.14049
-0.144069
-0.147647
-0.151226
-0.15448
-0.157083
-0.158384
-0.158384
-0.157408
-0.155456
-0.152853
-0.149925
-0.146671
-0.143418
-0.139839
-0.13626
-0.132356
-0.128777
-0.124873
-0.121945
-0.119993
-0.119667
-0.120318
-0.121619
-0.123571
-0.126174
-0.130078
-0.134959
-0.140815
-0.147322
-0.15448
-0.161963
-0.169446
-0.175953
-0.181484
-0.185063
-0.187015
-0.186689
-0.185388
-0.183436
-0.180508
-0.177254
-0.17335
-0.168795
-0.16359
-0.158384
-0.152528
-0.146346
-0.139514
-0.132356
-0.125198
-0.118366
-0.111859
-0.105677
-0.100472
-0.0955913
-0.0923378
-0.0907111
-0.0907111
-0.0923378
-0.0946153
-0.0975434
-0.100472
-0.102424
-0.103074
-0.102749
-0.101448
-0.100146
-0.0994955
-0.0994955
-0.101122
-0.10405
-0.107304
-0.110232
-0.112835
-0.114462
-0.115112
-0.114462
-0.113486
-0.111533
-0.109581
-0.10828
-0.107955
-0.10828
-0.10828
-0.107304
-0.104701
-0.101448
-0.0981941
-0.095266
-0.0936392
-0.0923378
-0.0916871
-0.0910364
-0.0907111
-0.0900604
-0.089735
-0.0894097
-0.088759
-0.088759
-0.0884336
-0.0884336
-0.0884336
-0.0890843
-0.0903857
-0.0926632
-0.095266
-0.0978688
-0.100472
-0.102098
-0.102424
-0.102424
-0.101773
-0.101122
-0.100797
-0.100797
-0.101122
-0.101448
-0.102424
-0.102749
-0.102749
-0.102749
-0.102098
-0.101773
-0.101448
-0.101773
-0.101773
-0.102424
-0.102749
-0.103725
-0.104376
-0.105026
-0.105352
-0.105677
-0.105026
-0.10405
-0.102424
-0.100146
-0.0975434
-0.0946153
-0.0916871
-0.0894097
-0.0874576
-0.0864815
-0.0858308
-0.0861562
-0.0881083
-0.0920125
-0.0972181
-0.103074
-0.109256
-0.114787
-0.119342
-0.122921
-0.125524
-0.12715
-0.128126
-0.128777
-0.129428
-0.130404
-0.131055
-0.131055
-0.129753
-0.127801
-0.124548
-0.120643
-0.116414
-0.111859
-0.107304
-0.102749
-0.0981941
-0.0942899
-0.0907111
-0.0881083
-0.0864815
-0.0858308
-0.0858308
-0.0861562
-0.0861562
-0.0861562
-0.0861562
-0.0864815
-0.0868069
-0.0877829
-0.088759
-0.0894097
-0.0890843
-0.0874576
-0.0848548
-0.0816012
-0.0783477
-0.0760703
-0.0741182
-0.0721661
-0.0698886
-0.0679365
-0.0659844
-0.064683
-0.0640323
-0.0640323
-0.0650084
-0.0663098
-0.0679365
-0.0698886
-0.0721661
-0.0744435
-0.0770463
-0.0802998
-0.0838787
-0.0884336
-0.0929885
-0.0975434
-0.101773
-0.104376
-0.106003
-0.105677
-0.104376
-0.101448
-0.0975434
-0.0933139
-0.0890843
-0.0855055
-0.0819266
-0.0786731
-0.0754196
-0.0718407
-0.0676112
-0.0627309
-0.058176
-0.0542718
-0.0519943
-0.0523197
-0.0542718
-0.0575253
-0.0617549
-0.0663098
-0.07119
-0.076721
-0.0829026
-0.0894097
-0.096242
-0.102749
-0.109581
-0.116414
-0.123571
-0.130729
-0.136911
-0.141791
-0.145045
-0.146346
-0.14537
-0.142767
-0.138863
-0.133657
-0.128452
-0.122921
-0.11739
-0.111533
-0.105026
-0.0975434
-0.0903857
-0.0835533
-0.077697
-0.0731421
-0.0695633
-0.0666351
-0.0633816
-0.0601281
-0.0568746
-0.0545972
-0.0529704
-0.052645
-0.0532957
-0.0545972
-0.0562239
-0.058176
-0.0601281
-0.0624056
-0.064683
-0.0669605
-0.0692379
-0.0718407
-0.0747689
-0.0780224
-0.0816012
-0.0851801
-0.0881083
-0.0903857
-0.0913618
-0.0913618
-0.0910364
-0.0903857
-0.089735
-0.0890843
-0.0890843
-0.0894097
-0.089735
-0.0890843
-0.0881083
-0.0874576
-0.0864815
-0.0861562
-0.0855055
-0.0848548
-0.0838787
-0.083228
-0.0822519
-0.0809505
-0.0799745
-0.0786731
-0.077697
-0.0770463
-0.0763956
-0.0757449
-0.0744435
-0.0728168
-0.0705393
-0.0679365
-0.0653337
-0.0624056
-0.0588267
-0.0539465
-0.0480901
-0.0415831
-0.0347508
-0.0282438
-0.0233635
-0.0197846
-0.0184832
-0.0188086
-0.02011
-0.0220621
-0.0249903
-0.0282438
-0.0318226
-0.0357268
-0.0406071
-0.0458127
-0.0513436
-0.0568746
-0.0614295
-0.064683
-0.0666351
-0.0666351
-0.0650084
-0.0620802
-0.0578507
-0.0529704
-0.0477648
-0.0425592
-0.0370282
-0.0318226
-0.0269424
-0.0227128
-0.0184832
-0.0152297
-0.0123016
-0.0103495
-0.00937343
-0.00937343
-0.0103495
-0.0123016
-0.0149044
-0.0178325
-0.0214114
-0.0253156
-0.0292198
-0.0341001
-0.038655
-0.0432099
-0.0464634
-0.0484155
-0.0487408
-0.0477648
-0.0454873
-0.0428845
-0.0402817
-0.038655
-0.0389803
-0.0406071
-0.0432099
-0.0464634
-0.0497169
-0.0532957
-0.0568746
-0.0607788
-0.0650084
-0.0692379
-0.0734675
-0.0773717
-0.0809505
-0.0838787
-0.0861562
-0.0877829
-0.0890843
-0.0903857
-0.0916871
-0.0926632
-0.0923378
-0.0903857
-0.0868069
-0.0816012
-0.0760703
-0.07119
-0.0676112
-0.0653337
-0.0640323
-0.0627309
-0.0614295
-0.0601281
-0.0591521
-0.0594774
-0.0607788
-0.0633816
-0.0663098
-0.0698886
-0.0741182
-0.0786731
-0.0838787
-0.0894097
-0.0955913
-0.101448
-0.106328
-0.110883
-0.114462
-0.11739
-0.119667
-0.121294
-0.121619
-0.120969
-0.119017
-0.116414
-0.11316
-0.109581
-0.106003
-0.101448
-0.096242
-0.0907111
-0.0848548
-0.0796491
-0.0754196
-0.0721661
-0.0698886
-0.0692379
-0.0692379
-0.0705393
-0.0724914
-0.0750942
-0.0789984
-0.0838787
-0.0894097
-0.0955913
-0.101773
-0.107629
-0.112835
-0.11739
-0.121945
-0.125849
-0.129428
-0.131705
-0.133007
-0.132681
-0.13138
-0.129102
-0.125524
-0.121619
-0.117064
-0.112835
-0.109256
-0.105677
-0.102749
-0.100472
-0.0985195
-0.096242
-0.0936392
-0.0907111
-0.0877829
-0.0848548
-0.0825773
-0.0806252
-0.0789984
-0.0783477
-0.0783477
-0.0786731
-0.0789984
-0.0786731
-0.0783477
-0.0773717
-0.0763956
-0.0747689
-0.0724914
-0.0698886
-0.0666351
-0.0630563
-0.0598028
-0.058176
-0.0572
-0.0575253
-0.0578507
-0.0578507
-0.0572
-0.0565493
-0.0565493
-0.0575253
-0.0594774
-0.0627309
-0.0672858
-0.0728168
-0.0786731
-0.0835533
-0.0868069
-0.088759
-0.0900604
-0.0913618
-0.0933139
-0.0959167
-0.0991702
-0.102749
-0.105677
-0.107304
-0.10828
-0.107955
-0.106979
-0.106003
-0.105677
-0.105352
-0.105026
-0.104701
-0.10405
-0.1034
-0.102424
-0.101448
-0.100472
-0.100146
-0.100472
-0.101448
-0.102424
-0.103725
-0.10405
-0.103725
-0.102424
-0.0994955
-0.0949406
-0.088759
-0.0816012
-0.0744435
-0.0682619
-0.0633816
-0.0591521
-0.0552479
-0.0510183
-0.046138
-0.0406071
-0.0350761
-0.0292198
-0.0230382
-0.0162058
-0.00904808
-0.00221572
0.00526734
0.0137265
0.023487
0.0351996
0.0498404
0.0670839
0.0872557
0.11003
0.135082
0.162412
0.191693
0.222927
0.255462
0.288648
0.322809
0.357297
0.391784
0.425946
0.458481
0.488738
0.516718
0.54112
0.561617
0.57821
0.589922
0.596755
0.598056
0.594152
0.584391
0.568774
0.548277
0.5229
0.493618
0.460758
0.423993
0.384626
0.34233
0.298734
0.25351
0.207635
0.16111
0.11491
0.0687107
0.023487
-0.02011
-0.0614295
-0.0991702
-0.133007
-0.161637
-0.185063
-0.201981
-0.212718
-0.217272
-0.216296
-0.210765
-0.202306
-0.19222
-0.180182
-0.167168
-0.152528
-0.136911
-0.120969
-0.105677
-0.0916871
-0.0793238
-0.0682619
-0.0591521
-0.0510183
-0.0445113
-0.0399564
-0.0373536
-0.0373536
-0.039631
-0.0441859
-0.0503676
-0.0575253
-0.0643577
-0.0705393
-0.0754196
-0.0793238
-0.0816012
-0.0825773
-0.0819266
-0.0802998
-0.0783477
-0.0757449
-0.0731421
-0.070214
-0.0672858
-0.064683
-0.0627309
-0.0617549
-0.0624056
-0.0643577
-0.0676112
-0.0715154
-0.0754196
-0.0789984
-0.0825773
-0.0861562
-0.089735
-0.0939646
-0.0978688
-0.101773
-0.104701
-0.106979
-0.10828
-0.10828
-0.107629
-0.106328
-0.105026
-0.10405
-0.1034
-0.102424
-0.101122
-0.0988448
-0.095266
-0.0907111
-0.0855055
-0.0799745
-0.0747689
-0.070214
-0.0659844
-0.0624056
-0.0598028
-0.058176
-0.0572
-0.0572
-0.0572
-0.0575253
-0.0575253
-0.0578507
-0.0578507
-0.0572
-0.0565493
-0.0555732
-0.0552479
-0.0552479
-0.0555732
-0.0562239
-0.0565493
-0.0568746
-0.0562239
-0.0552479
-0.0532957
-0.0503676
-0.0471141
-0.0435352
-0.0409324
-0.0393057
-0.0380043
-0.0373536
-0.0363775
-0.0354015
-0.0347508
-0.0337747
-0.033124
-0.033124
-0.033124
-0.0337747
-0.0341001
-0.0341001
-0.033124
-0.0318226
-0.0301959
-0.0285691
-0.0272677
-0.0259663
-0.0246649
-0.0233635
-0.0220621
-0.0207607
-0.0197846
-0.0188086
-0.0171818
-0.0149044
-0.0119762
-0.00904808
-0.00644527
-0.00514387
-0.00481852
-0.00481852
-0.00514387
-0.00514387
-0.00449317
-0.00351712
-0.00286642
-0.00221572
-0.000914315
0.000712437
0.00298989
0.00591805
0.0094969
0.0140518
0.0186067
0.023487
0.0280419
0.0325968
0.0371517
0.0423573
0.0472376
0.0524432
0.0576488
0.0622037
0.0661079
0.0693614
0.0726149
0.0755431
0.0784712
0.081074
0.0836768
0.0853036
0.086605
0.0879064
0.0892078
0.0905092
0.0918106
0.093112
0.0953894
0.0986429
0.102873
0.108078
0.113934
0.120441
0.127599
0.134757
0.141264
0.146795
0.151024
0.154929
0.158507
0.162737
0.167617
0.172172
0.176402
0.179655
0.181607
0.182583
0.182909
0.182909
0.182909
0.183234
0.183559
0.18421
0.184861
0.186488
0.189741
0.193971
0.199176
0.204707
0.211214
0.218047
0.22553
0.233989
0.243099
0.252534
0.261969
0.270753
0.278236
0.284093
0.288322
0.2906
0.291576
0.2906
0.287672
0.283442
0.27726
0.269777
0.260342
0.24928
0.236266
0.222601
0.208286
0.193971
0.180631
0.167617
0.155579
0.143867
0.132479
0.121743
0.111332
0.101246
0.0918106
0.0823754
0.0732656
0.0648065
0.0573234
0.0504911
0.0446348
0.0394291
0.0345489
0.0296686
0.024463
0.0186067
0.0120997
0.00526734
-0.00123967
-0.00774668
-0.0152297
-0.0236889
-0.0334494
-0.0445113
-0.0562239
-0.0679365
-0.0783477
-0.0877829
-0.096242
-0.103725
-0.110883
-0.118691
-0.126825
-0.135284
-0.143743
-0.152202
-0.160336
-0.167494
-0.173675
-0.178556
-0.182135
-0.185388
-0.188316
-0.190594
-0.192546
-0.193196
-0.19222
-0.190268
-0.187666
-0.185388
-0.182785
-0.179857
-0.176278
-0.172374
-0.168144
-0.163915
-0.159035
-0.153829
-0.147973
-0.14114
-0.133657
-0.125849
-0.119017
-0.112835
-0.107629
-0.1034
-0.100146
-0.0988448
-0.0988448
-0.100146
-0.102424
-0.104701
-0.107304
-0.109907
-0.113486
-0.118041
-0.124222
-0.13138
-0.138538
-0.145695
-0.152202
-0.158709
-0.164566
-0.169121
-0.172374
-0.174001
-0.174001
-0.172374
-0.168795
-0.163915
-0.158059
-0.151552
-0.145045
-0.139188
-0.133983
-0.129428
-0.1265
-0.124222
-0.123246
-0.122595
-0.12227
-0.12227
-0.122595
-0.122921
-0.123246
-0.122595
-0.121945
-0.120318
-0.118041
-0.115438
-0.112835
-0.110883
-0.110232
-0.109907
-0.109907
-0.109581
-0.108931
-0.108605
-0.108605
-0.109581
-0.111208
-0.113486
-0.117064
-0.121945
-0.127801
-0.135284
-0.144069
-0.153178
-0.162939
-0.172049
-0.180508
-0.187991
-0.193847
-0.198727
-0.201981
-0.203282
-0.201981
-0.198077
-0.191895
-0.184087
-0.176278
-0.16847
-0.161312
-0.15448
-0.147973
-0.14114
-0.134308
-0.12715
-0.119667
-0.112184
-0.104376
-0.096242
-0.0884336
-0.0809505
-0.0744435
-0.0692379
-0.064683
-0.0614295
-0.0585014
-0.0562239
-0.0542718
-0.0529704
-0.0519943
-0.0513436
-0.0513436
-0.052645
-0.0552479
-0.0594774
-0.064683
-0.070214
-0.0760703
-0.0819266
-0.0874576
-0.0929885
-0.0985195
-0.103725
-0.10828
-0.11251
-0.116088
-0.118366
-0.119017
-0.118041
-0.115438
-0.111859
-0.107955
-0.104376
-0.100797
-0.0975434
-0.0939646
-0.0907111
-0.0881083
-0.0864815
-0.0871322
-0.0890843
-0.0926632
-0.0968927
-0.101122
-0.105352
-0.109581
-0.114136
-0.118691
-0.122595
-0.125524
-0.126825
-0.125849
-0.122921
-0.118366
-0.11251
-0.106003
-0.0981941
-0.0900604
-0.0809505
-0.0718407
-0.0633816
-0.0558986
-0.0500422
-0.0464634
-0.0448366
-0.045162
-0.046138
-0.0477648
-0.0500422
-0.052645
-0.0558986
-0.0604535
-0.0659844
-0.0718407
-0.0780224
-0.083228
-0.0874576
-0.0900604
-0.0913618
-0.0910364
-0.0894097
-0.0858308
-0.0809505
-0.0744435
-0.0663098
-0.0572
-0.0480901
-0.039631
-0.033124
-0.0282438
-0.025641
-0.0240142
-0.0240142
-0.0253156
-0.0272677
-0.0308466
-0.0357268
-0.0422338
-0.0503676
-0.0598028
-0.070214
-0.0809505
-0.0913618
-0.101122
-0.109907
-0.11739
-0.123246
-0.12715
-0.129102
-0.128777
-0.126825
-0.123571
-0.119342
-0.115112
-0.110232
-0.105677
-0.100472
-0.0949406
-0.088759
-0.0825773
-0.0763956
-0.07119
-0.0672858
-0.064683
-0.0640323
-0.0650084
-0.0676112
-0.0715154
-0.0763956
-0.0819266
-0.0874576
-0.0929885
-0.0981941
-0.103074
-0.106979
-0.110557
-0.113811
-0.116088
-0.117715
-0.117715
-0.117064
-0.115112
-0.11251
-0.108931
-0.104376
-0.0991702
-0.0929885
-0.0868069
-0.0806252
-0.0747689
-0.0698886
-0.0656591
-0.0624056
-0.0594774
-0.0565493
-0.0536211
-0.0503676
-0.0467887
-0.0428845
-0.0389803
-0.0350761
-0.0311719
-0.0269424
-0.0227128
-0.0188086
-0.0155551
-0.0132776
-0.0119762
-0.0123016
-0.013603
-0.0152297
-0.0168565
-0.0184832
-0.0204353
-0.0236889
-0.0285691
-0.0350761
-0.0425592
-0.0510183
-0.0598028
-0.0685872
-0.0763956
-0.0829026
-0.0884336
-0.0933139
-0.0985195
-0.103725
-0.10828
-0.112184
-0.114136
-0.114462
-0.113486
-0.111533
-0.109256
-0.106653
-0.103725
-0.100797
-0.0988448
-0.0975434
-0.0972181
-0.0968927
-0.096242
-0.095266
-0.0936392
-0.0920125
-0.0903857
-0.0894097
-0.0890843
-0.089735
-0.0903857
-0.0910364
-0.0916871
-0.0920125
-0.0920125
-0.0916871
-0.0910364
-0.0903857
-0.089735
-0.0884336
-0.0871322
-0.0855055
-0.0838787
-0.0825773
-0.0819266
-0.0825773
-0.0835533
-0.084204
-0.084204
-0.0829026
-0.0812759
-0.0783477
-0.0750942
-0.0718407
-0.0685872
-0.0656591
-0.0630563
-0.0607788
-0.0585014
-0.0562239
-0.0536211
-0.0513436
-0.0487408
-0.0464634
-0.045162
-0.0441859
-0.0438606
-0.0441859
-0.045162
-0.0467887
-0.0490662
-0.0519943
-0.0555732
-0.0594774
-0.0630563
-0.0672858
-0.0715154
-0.0763956
-0.0809505
-0.0855055
-0.0900604
-0.0939646
-0.0975434
-0.100472
-0.102424
-0.103074
-0.102424
-0.100797
-0.0981941
-0.0946153
-0.0903857
-0.0855055
-0.0796491
-0.0737928
-0.0682619
-0.0630563
-0.0591521
-0.0572
-0.0565493
-0.0572
-0.0591521
-0.0614295
-0.0643577
-0.0676112
-0.0708647
-0.0744435
-0.0780224
-0.0819266
-0.0861562
-0.0910364
-0.0968927
-0.1034
-0.109256
-0.114787
-0.119017
-0.121294
-0.121619
-0.120318
-0.117715
-0.113811
-0.109256
-0.103725
-0.0978688
-0.0920125
-0.0861562
-0.0802998
-0.0747689
-0.0695633
-0.0650084
-0.0611042
-0.0578507
-0.0549225
-0.052645
-0.0510183
-0.0497169
-0.0487408
-0.0490662
-0.0503676
-0.052645
-0.0555732
-0.0588267
-0.0620802
-0.0653337
-0.0682619
-0.0708647
-0.0734675
-0.0750942
-0.0763956
-0.0770463
-0.0773717
-0.0780224
-0.0793238
-0.0809505
-0.0835533
-0.0864815
-0.089735
-0.0926632
-0.0949406
-0.0968927
-0.0975434
-0.0975434
-0.0968927
-0.0959167
-0.0946153
-0.0929885
-0.0916871
-0.0907111
-0.089735
-0.0890843
-0.0884336
-0.0871322
-0.0855055
-0.083228
-0.0812759
-0.0789984
-0.0760703
-0.0731421
-0.0698886
-0.0666351
-0.063707
-0.0604535
-0.0575253
-0.0549225
-0.0539465
-0.0545972
-0.0565493
-0.0585014
-0.0604535
-0.0611042
-0.0611042
-0.0607788
-0.0594774
-0.058176
-0.0558986
-0.0532957
-0.0503676
-0.0464634
-0.0419085
-0.0373536
-0.0327987
-0.0292198
-0.0269424
-0.0253156
-0.0240142
-0.0223875
-0.02011
-0.0175072
-0.014579
-0.0116509
-0.00904808
-0.00709598
-0.00677062
-0.00742133
-0.00969878
-0.0129523
-0.0175072
-0.0220621
-0.0269424
-0.0311719
-0.0347508
-0.0376789
-0.0393057
-0.0402817
-0.039631
-0.0383296
-0.0363775
-0.0344254
-0.0337747
-0.0334494
-0.0337747
-0.0341001
-0.0344254
-0.0347508
-0.0347508
-0.0350761
-0.0357268
-0.0363775
-0.0376789
-0.0393057
-0.0415831
-0.0441859
-0.0471141
-0.0503676
-0.0536211
-0.0565493
-0.0591521
-0.0611042
-0.0627309
-0.0643577
-0.0653337
-0.0656591
-0.0656591
-0.0653337
-0.0643577
-0.0633816
-0.0620802
-0.0607788
-0.0601281
-0.0601281
-0.0620802
-0.0659844
-0.0715154
-0.0786731
-0.0868069
-0.095266
-0.104376
-0.112835
-0.120643
-0.126825
-0.131705
-0.134959
-0.136911
-0.137887
-0.138538
-0.139188
-0.139188
-0.138538
-0.136911
-0.134308
-0.130404
-0.125849
-0.119993
-0.114136
-0.10828
-0.103074
-0.0988448
-0.0965674
-0.0955913
-0.0959167
-0.0968927
-0.0985195
-0.100472
-0.103074
-0.105026
-0.106003
-0.106003
-0.106003
-0.105677
-0.106003
-0.106979
-0.107955
-0.10828
-0.107629
-0.106328
-0.10405
-0.101122
-0.0978688
-0.0942899
-0.0910364
-0.0890843
-0.088759
-0.0900604
-0.0926632
-0.095266
-0.0972181
-0.0981941
-0.0985195
-0.0991702
-0.100797
-0.10405
-0.10828
-0.111533
-0.112835
-0.111859
-0.108931
-0.105026
-0.101773
-0.0991702
-0.0972181
-0.095266
-0.0936392
-0.0923378
-0.0910364
-0.0900604
-0.0894097
-0.0890843
-0.0884336
-0.0881083
-0.0881083
-0.0890843
-0.0910364
-0.0942899
-0.0988448
-0.104376
-0.110883
-0.11739
-0.123571
-0.128777
-0.132681
-0.134959
-0.135935
-0.135609
-0.133657
-0.130078
-0.124873
-0.119017
-0.11316
-0.107304
-0.101773
-0.0965674
-0.0916871
-0.0871322
-0.0822519
-0.076721
-0.0715154
-0.0663098
-0.0614295
-0.0572
-0.0549225
-0.0542718
-0.0555732
-0.0585014
-0.0617549
-0.0650084
-0.0672858
-0.0685872
-0.0692379
-0.0698886
-0.0708647
-0.0724914
-0.0737928
-0.0750942
-0.0757449
-0.076721
-0.077697
-0.0796491
-0.0819266
-0.0845294
-0.0877829
-0.0920125
-0.0978688
-0.105026
-0.113486
-0.122595
-0.13138
-0.138863
-0.145045
-0.15025
-0.154154
-0.157408
-0.160011
-0.161312
-0.161312
-0.159685
-0.157408
-0.154154
-0.149925
-0.144719
-0.137887
-0.130404
-0.123246
-0.116414
-0.110883
-0.106003
-0.100797
-0.0955913
-0.088759
-0.0809505
-0.0718407
-0.0617549
-0.0506929
-0.0393057
-0.0272677
-0.013603
0.00201384
0.0215349
0.0456108
0.0739163
0.106451
0.14224
0.180631
0.220975
0.262945
0.306217
0.350139
0.393736
0.436357
0.477026
0.514441
0.548928
0.579511
0.605864
0.627988
0.645232
0.65727
0.663777
0.665404
0.660849
0.650112
0.632869
0.609118
0.579186
0.543072
0.502403
0.457505
0.410329
0.361201
0.311748
0.262294
0.213817
0.165991
0.11914
0.0729403
0.0277165
-0.0155551
-0.0578507
-0.0975434
-0.134308
-0.167819
-0.196775
-0.220851
-0.239722
-0.252736
-0.260544
-0.263798
-0.262496
-0.257616
-0.249807
-0.240047
-0.22866
-0.216622
-0.204258
-0.19157
-0.178556
-0.165216
-0.152202
-0.139514
-0.127476
-0.116739
-0.107629
-0.100146
-0.0946153
-0.0907111
-0.0884336
-0.0877829
-0.0877829
-0.089735
-0.0936392
-0.0988448
-0.105352
-0.112184
-0.118041
-0.122595
-0.125198
-0.126174
-0.125524
-0.124222
-0.122595
-0.120969
-0.119342
-0.117064
-0.114136
-0.110557
-0.107304
-0.104376
-0.102424
-0.101122
-0.100146
-0.0991702
-0.0978688
-0.0959167
-0.0936392
-0.0910364
-0.088759
-0.0868069
-0.0851801
-0.0835533
-0.0819266
-0.0793238
-0.0763956
-0.0731421
-0.0698886
-0.0669605
-0.0640323
-0.0607788
-0.0568746
-0.052645
-0.0480901
-0.0435352
-0.0393057
-0.0354015
-0.0314973
-0.0279184
-0.0253156
-0.0243396
-0.0249903
-0.0275931
-0.0318226
-0.0373536
-0.0425592
-0.0471141
-0.0510183
-0.0539465
-0.0568746
-0.0604535
-0.0653337
-0.0715154
-0.0786731
-0.0861562
-0.0939646
-0.101773
-0.108605
-0.114787
-0.119017
-0.120969
-0.120969
-0.118691
-0.114787
-0.109581
-0.10405
-0.0978688
-0.0916871
-0.0851801
-0.0783477
-0.0715154
-0.0643577
-0.0568746
-0.0490662
-0.0409324
-0.0337747
-0.0275931
-0.0223875
-0.0184832
-0.0158804
-0.0142537
-0.0132776
-0.013603
-0.0149044
-0.0171818
-0.0204353
-0.0246649
-0.0288945
-0.033124
-0.0370282
-0.0393057
-0.039631
-0.0380043
-0.0347508
-0.0305212
-0.0253156
-0.0204353
-0.0155551
-0.0106748
-0.00579457
-0.000263614
0.0062434
0.0130758
0.0195828
0.0260898
0.0325968
0.0384531
0.0439841
0.049515
0.055046
0.0609023
0.0664332
0.0719642
0.0765191
0.0794473
0.081074
0.081074
0.0804233
0.0794473
0.0791219
0.0794473
0.0804233
0.0817247
0.0833515
0.0846529
0.0859543
0.086605
0.0869303
0.0859543
0.0846529
0.0823754
0.0797726
0.0768445
0.0739163
0.0716389
0.0703374
0.0709882
0.0726149
0.0748924
0.0778205
0.0807487
0.0836768
0.0869303
0.0911599
0.0960401
0.102547
0.110356
0.119465
0.129877
0.141264
0.153627
0.165991
0.178354
0.190392
0.20243
0.214142
0.225204
0.234965
0.243099
0.24928
0.252859
0.254811
0.255462
0.255462
0.255137
0.254811
0.255137
0.255787
0.256438
0.256763
0.256763
0.256763
0.257739
0.259691
0.262945
0.266524
0.270753
0.275308
0.279538
0.282466
0.283767
0.283442
0.281815
0.279538
0.276284
0.272055
0.266849
0.260017
0.251232
0.24017
0.227156
0.212516
0.196573
0.180957
0.16534
0.150699
0.137034
0.12402
0.112308
0.102222
0.0944134
0.0885571
0.0843275
0.0807487
0.0774952
0.0739163
0.0696867
0.0644811
0.0579741
0.0504911
0.042032
0.0322714
0.0218602
0.010473
-0.00156502
-0.013603
-0.026617
-0.039631
-0.0532957
-0.0669605
-0.0802998
-0.0936392
-0.106003
-0.117064
-0.12715
-0.135609
-0.142767
-0.148623
-0.153178
-0.157083
-0.159685
-0.160987
-0.161312
-0.160336
-0.159035
-0.157083
-0.15448
-0.151226
-0.147322
-0.142767
-0.138212
-0.134633
-0.132031
-0.130078
-0.127801
-0.124548
-0.120318
-0.115112
-0.109907
-0.105026
-0.100472
-0.0965674
-0.0926632
-0.0890843
-0.0858308
-0.0838787
-0.0829026
-0.0825773
-0.0829026
-0.0835533
-0.0848548
-0.0864815
-0.0890843
-0.0916871
-0.0946153
-0.0981941
-0.102424
-0.107955
-0.114136
-0.121294
-0.128777
-0.135935
-0.142116
-0.147647
-0.151877
-0.155456
-0.158059
-0.160011
-0.160661
-0.160336
-0.158059
-0.154805
-0.150901
-0.146346
-0.141791
-0.136585
-0.130729
-0.124222
-0.116414
-0.108605
-0.100797
-0.0939646
-0.0884336
-0.0848548
-0.0829026
-0.0829026
-0.0845294
-0.0874576
-0.0913618
-0.096242
-0.101448
-0.107629
-0.113811
-0.120969
-0.128126
-0.134959
-0.141466
-0.147322
-0.152202
-0.155781
-0.157408
-0.157408
-0.15513
-0.151226
-0.146346
-0.14049
-0.134633
-0.128452
-0.122595
-0.116414
-0.110883
-0.105352
-0.100146
-0.0949406
-0.089735
-0.0848548
-0.0806252
-0.0770463
-0.0734675
-0.070214
-0.0663098
-0.0624056
-0.0578507
-0.0536211
-0.0493915
-0.046138
-0.0435352
-0.0415831
-0.0406071
-0.0402817
-0.0409324
-0.0422338
-0.0438606
-0.0454873
-0.0474394
-0.0493915
-0.0513436
-0.0542718
-0.0575253
-0.0611042
-0.0650084
-0.0692379
-0.0737928
-0.0783477
-0.0825773
-0.0871322
-0.0916871
-0.095266
-0.0975434
-0.0981941
-0.0965674
-0.0923378
-0.0864815
-0.0796491
-0.0724914
-0.0663098
-0.0611042
-0.0572
-0.0549225
-0.0539465
-0.0539465
-0.0539465
-0.0542718
-0.0542718
-0.0549225
-0.0558986
-0.058176
-0.0614295
-0.0663098
-0.0721661
-0.0786731
-0.0861562
-0.0942899
-0.102749
-0.111533
-0.119342
-0.126825
-0.133332
-0.138863
-0.144069
-0.148298
-0.150901
-0.151226
-0.149274
-0.144394
-0.137887
-0.130078
-0.121619
-0.112184
-0.102424
-0.0920125
-0.0819266
-0.0718407
-0.0620802
-0.0529704
-0.0438606
-0.0354015
-0.0279184
-0.0223875
-0.0184832
-0.0162058
-0.0149044
-0.0149044
-0.0155551
-0.0165311
-0.0181579
-0.0204353
-0.0236889
-0.0275931
-0.0314973
-0.0357268
-0.0399564
-0.0438606
-0.0474394
-0.0503676
-0.0523197
-0.0532957
-0.0532957
-0.0523197
-0.0506929
-0.0487408
-0.0464634
-0.0445113
-0.0422338
-0.039631
-0.0363775
-0.0327987
-0.0282438
-0.0230382
-0.0178325
-0.0129523
-0.00807203
-0.00351712
0.000712437
0.00461664
0.0081955
0.010473
0.0117744
0.011449
0.0094969
0.0062434
0.00103779
-0.00514387
-0.0126269
-0.021086
-0.0295452
-0.0383296
-0.0474394
-0.0572
-0.0679365
-0.0789984
-0.089735
-0.100146
-0.108931
-0.115763
-0.120643
-0.123897
-0.125198
-0.124873
-0.123246
-0.120318
-0.116739
-0.11316
-0.108931
-0.105026
-0.100797
-0.096242
-0.0920125
-0.0874576
-0.0829026
-0.0786731
-0.0750942
-0.0721661
-0.0695633
-0.0672858
-0.0650084
-0.0624056
-0.0594774
-0.0552479
-0.0506929
-0.046138
-0.0419085
-0.0383296
-0.0347508
-0.0314973
-0.0275931
-0.0233635
-0.0178325
-0.0116509
-0.00546922
6.17361E-005
0.00494199
0.0088462
0.0111237
0.0120997
0.0120997
0.0117744
0.0111237
0.0107983
0.010473
0.0094969
0.0068941
0.00266454
-0.00254107
-0.00872273
-0.0149044
-0.0204353
-0.0253156
-0.0292198
-0.032148
-0.0341001
-0.0360522
-0.0376789
-0.0402817
-0.0438606
-0.0484155
-0.0539465
-0.0598028
-0.0656591
-0.0708647
-0.0750942
-0.0786731
-0.0812759
-0.083228
-0.084204
-0.0848548
-0.0855055
-0.0861562
-0.0868069
-0.0871322
-0.0868069
-0.0848548
-0.0816012
-0.0770463
-0.0718407
-0.0666351
-0.0617549
-0.0572
-0.0523197
-0.0467887
-0.0402817
-0.0337747
-0.0272677
-0.0220621
-0.0178325
-0.0152297
-0.0139283
-0.0132776
-0.0139283
-0.0149044
-0.0171818
-0.0197846
-0.0227128
-0.0262917
-0.0298705
-0.0337747
-0.0380043
-0.0425592
-0.0464634
-0.0493915
-0.051669
-0.0529704
-0.0536211
-0.0539465
-0.0545972
-0.0552479
-0.0562239
-0.0565493
-0.0568746
-0.0568746
-0.0562239
-0.0549225
-0.0523197
-0.0490662
-0.0448366
-0.0402817
-0.0360522
-0.0324733
-0.0292198
-0.026617
-0.0240142
-0.0207607
-0.0171818
-0.0132776
-0.0100241
-0.00872273
-0.00937343
-0.0123016
-0.0158804
-0.02011
-0.0240142
-0.0275931
-0.0311719
-0.0347508
-0.0389803
-0.0435352
-0.0480901
-0.052645
-0.0568746
-0.0604535
-0.063707
-0.0663098
-0.0679365
-0.0685872
-0.0682619
-0.0666351
-0.063707
-0.0598028
-0.0549225
-0.0490662
-0.0428845
-0.0367029
-0.0308466
-0.0259663
-0.0214114
-0.0175072
-0.0142537
-0.0116509
-0.00969878
-0.00904808
-0.00904808
-0.0100241
-0.0123016
-0.0158804
-0.0204353
-0.025641
-0.0305212
-0.0344254
-0.0373536
-0.0393057
-0.0406071
-0.0425592
-0.0448366
-0.0477648
-0.0503676
-0.0523197
-0.0529704
-0.0529704
-0.0519943
-0.0500422
-0.0464634
-0.0415831
-0.0357268
-0.0292198
-0.0223875
-0.0152297
-0.00872273
-0.00254107
0.00298989
0.00852085
0.0140518
0.0189321
0.0231616
0.0260898
0.0273912
0.0270658
0.0247884
0.0208842
0.0156786
0.00982225
0.00364059
-0.00286642
-0.0100241
-0.0168565
-0.0236889
-0.0301959
-0.0363775
-0.0419085
-0.0471141
-0.051669
-0.0555732
-0.058176
-0.0598028
-0.0598028
-0.058176
-0.0549225
-0.0500422
-0.0428845
-0.0347508
-0.0259663
-0.0175072
-0.00969878
-0.00351712
0.00168849
0.0055927
0.0088462
0.011449
0.0134011
0.0156786
0.0173053
0.0189321
0.0199081
0.0205588
0.0199081
0.0182814
0.0153532
0.011449
0.00721945
0.00331524
6.17361E-005
-0.00254107
-0.00416782
-0.00449317
-0.00319177
-0.000588965
0.00364059
0.0088462
0.0140518
0.0199081
0.0260898
0.0329221
0.0404052
0.0478883
0.0553713
0.0618783
0.0677346
0.0726149
0.0765191
0.0784712
0.0794473
0.0787966
0.0771698
0.074567
0.0709882
0.0667586
0.0618783
0.0569981
0.0514671
0.0456108
0.0400799
0.0345489
0.0286926
0.0228363
0.01698
0.0117744
0.0081955
0.00656875
0.00656875
0.00787015
0.00982225
0.0124251
0.0160039
0.0202335
0.0241377
0.0273912
0.0290179
0.0290179
0.0273912
0.0247884
0.0212095
0.01698
0.0130758
0.0088462
0.00461664
-0.000263614
-0.00481852
-0.0103495
-0.0152297
-0.0194593
-0.0230382
-0.0253156
-0.026617
-0.026617
-0.0246649
-0.021086
-0.0168565
-0.0126269
-0.00839738
-0.00514387
-0.00286642
-0.00123967
0.000387087
0.00103779
0.00103779
0.000387087
-0.00189037
-0.00481852
-0.00937343
-0.014579
-0.02011
-0.0253156
-0.0301959
-0.0341001
-0.0380043
-0.0419085
-0.0464634
-0.0510183
-0.0552479
-0.058176
-0.0598028
-0.0601281
-0.0594774
-0.0578507
-0.0549225
-0.0513436
-0.0471141
-0.0428845
-0.038655
-0.0337747
-0.0295452
-0.025641
-0.0236889
-0.0236889
-0.0253156
-0.0285691
-0.0324733
-0.0363775
-0.0402817
-0.0441859
-0.0474394
-0.0500422
-0.0519943
-0.0532957
-0.0536211
-0.052645
-0.0506929
-0.0487408
-0.0471141
-0.046138
-0.0454873
-0.0454873
-0.045162
-0.0441859
-0.0432099
-0.0422338
-0.0412578
-0.039631
-0.0376789
-0.0347508
-0.0311719
-0.0272677
-0.0236889
-0.0217367
-0.0214114
-0.0227128
-0.0249903
-0.0272677
-0.0288945
-0.0301959
-0.0314973
-0.0324733
-0.0344254
-0.0367029
-0.0393057
-0.0422338
-0.0445113
-0.0464634
-0.0474394
-0.0484155
-0.0493915
-0.0500422
-0.0506929
-0.051669
-0.052645
-0.0532957
-0.0529704
-0.0519943
-0.0497169
-0.0467887
-0.0435352
-0.0399564
-0.0367029
-0.033124
-0.0295452
-0.0262917
-0.0230382
-0.0207607
-0.0184832
-0.0162058
-0.0142537
-0.0123016
-0.0113255
-0.0113255
-0.0129523
-0.0155551
-0.0188086
-0.0223875
-0.0253156
-0.0272677
-0.0282438
-0.0288945
-0.0301959
-0.0324733
-0.0347508
-0.0373536
-0.039631
-0.0412578
-0.0425592
-0.0438606
-0.045162
-0.0471141
-0.0497169
-0.0523197
-0.0545972
-0.0555732
-0.0552479
-0.0532957
-0.0503676
-0.0464634
-0.0428845
-0.039631
-0.0357268
-0.0311719
-0.0262917
-0.0207607
-0.0155551
-0.0106748
-0.00611992
-0.00254107
0.000387087
0.00201384
0.00233919
0.00103779
-0.00156502
-0.00514387
-0.0103495
-0.0158804
-0.0217367
-0.0275931
-0.0334494
-0.0393057
-0.045162
-0.0513436
-0.0572
-0.0624056
-0.0666351
-0.0695633
-0.07119
-0.0708647
-0.0689126
-0.0650084
-0.0585014
-0.0506929
-0.0412578
-0.0314973
-0.0214114
-0.0106748
0.000712437
0.0140518
0.0293433
0.0462615
0.0657825
0.0879064
0.112633
0.138986
0.166641
0.195923
0.226831
0.260342
0.296131
0.334522
0.374215
0.414558
0.454576
0.494269
0.532661
0.5691
0.602286
0.631567
0.656944
0.678092
0.694685
0.706723
0.712905
0.71323
0.707048
0.69436
0.674839
0.649136
0.616926
0.579186
0.537215
0.491341
0.443189
0.393085
0.340704
0.28637
0.23041
0.173474
0.117188
0.0635051
0.0137265
-0.0311719
-0.0708647
-0.104701
-0.132681
-0.155456
-0.173025
-0.186039
-0.194823
-0.199703
-0.20068
-0.197751
-0.191244
-0.181159
-0.16847
-0.153504
-0.137562
-0.120969
-0.104376
-0.088759
-0.0744435
-0.0614295
-0.0500422
-0.0406071
-0.033124
-0.0275931
-0.0243396
-0.0236889
-0.025641
-0.0292198
-0.0334494
-0.0376789
-0.0415831
-0.0454873
-0.0490662
-0.0529704
-0.0562239
-0.0591521
-0.0614295
-0.0630563
-0.064683
-0.0666351
-0.0692379
-0.0728168
-0.076721
-0.0799745
-0.0816012
-0.0819266
-0.0812759
-0.0789984
-0.0760703
-0.0724914
-0.0685872
-0.0653337
-0.0627309
-0.0611042
-0.0607788
-0.0617549
-0.0640323
-0.0672858
-0.0705393
-0.0734675
-0.0754196
-0.0763956
-0.0763956
-0.0763956
-0.076721
-0.0780224
-0.0802998
-0.0835533
-0.0871322
-0.0903857
-0.0929885
-0.0936392
-0.0926632
-0.0900604
-0.0858308
-0.0809505
-0.0760703
-0.07119
-0.0672858
-0.064683
-0.0630563
-0.0620802
-0.0614295
-0.0604535
-0.0591521
-0.058176
-0.0572
-0.0562239
-0.0555732
-0.0549225
-0.0545972
-0.0539465
-0.0536211
-0.0529704
-0.0519943
-0.0506929
-0.0484155
-0.045162
-0.0409324
-0.0357268
-0.0308466
-0.025641
-0.0207607
-0.0162058
-0.0132776
-0.0113255
-0.0106748
-0.0106748
-0.0113255
-0.0123016
-0.0139283
-0.0162058
-0.0191339
-0.0220621
-0.0246649
-0.0262917
-0.026617
-0.0262917
-0.0259663
-0.026617
-0.0279184
-0.0295452
-0.0305212
-0.0305212
-0.0288945
-0.0262917
-0.0233635
-0.02011
-0.0171818
-0.0149044
-0.013603
-0.0132776
-0.013603
-0.0142537
-0.0149044
-0.0149044
-0.014579
-0.0132776
-0.0116509
-0.0100241
-0.00807203
-0.00579457
-0.00351712
-0.00156502
0.00136314
0.00494199
0.0101476
0.0160039
0.0231616
0.03097
0.0384531
0.0452855
0.0511418
0.0556967
0.0589502
0.0609023
0.061553
0.061553
0.0612276
0.0618783
0.0641558
0.0677346
0.0729403
0.0797726
0.0872557
0.0950641
0.101246
0.106126
0.10938
0.112308
0.115887
0.120767
0.126623
0.13313
0.139962
0.146144
0.15135
0.155579
0.159158
0.162412
0.165665
0.168593
0.171521
0.174124
0.176727
0.17933
0.182258
0.185837
0.190066
0.195597
0.201779
0.209262
0.217396
0.22553
0.233663
0.241146
0.248304
0.255137
0.261318
0.266524
0.271079
0.274658
0.27726
0.278887
0.279863
0.280839
0.281165
0.280514
0.279212
0.276284
0.272055
0.266849
0.260993
0.255137
0.250256
0.246677
0.245376
0.244725
0.244725
0.244075
0.242773
0.241146
0.239194
0.237568
0.235941
0.234314
0.231711
0.227807
0.223252
0.219023
0.214468
0.209587
0.203406
0.195923
0.186813
0.176402
0.164364
0.15135
0.137685
0.124671
0.111982
0.0999443
0.0879064
0.0755431
0.0622037
0.0482136
0.0332475
0.0186067
0.00461664
-0.00839738
-0.0204353
-0.0305212
-0.0393057
-0.0464634
-0.0523197
-0.0578507
-0.0627309
-0.0672858
-0.0715154
-0.0750942
-0.0783477
-0.0812759
-0.0838787
-0.0858308
-0.0874576
-0.0890843
-0.0910364
-0.0926632
-0.095266
-0.0981941
-0.101448
-0.104701
-0.107304
-0.109581
-0.111208
-0.112835
-0.113486
-0.114136
-0.114787
-0.116088
-0.119017
-0.123571
-0.128777
-0.134633
-0.140164
-0.14537
-0.149925
-0.15448
-0.159035
-0.16424
-0.169446
-0.174977
-0.179857
-0.184737
-0.189618
-0.193522
-0.19645
-0.198077
-0.198077
-0.197426
-0.19645
-0.194823
-0.192546
-0.188316
-0.18246
-0.174651
-0.165216
-0.15448
-0.143092
-0.13138
-0.120969
-0.112184
-0.105352
-0.101448
-0.0994955
-0.0994955
-0.101448
-0.104701
-0.108605
-0.11251
-0.116414
-0.119667
-0.122921
-0.125198
-0.126825
-0.127801
-0.128777
-0.129753
-0.132031
-0.134959
-0.138212
-0.14114
-0.143418
-0.144719
-0.145045
-0.144719
-0.143418
-0.141791
-0.140164
-0.138538
-0.137562
-0.137562
-0.139188
-0.141791
-0.144719
-0.146997
-0.148298
-0.147647
-0.146021
-0.143092
-0.139188
-0.135284
-0.130729
-0.126174
-0.121945
-0.117715
-0.113486
-0.108931
-0.103725
-0.0988448
-0.0942899
-0.0903857
-0.0877829
-0.0864815
-0.0858308
-0.0855055
-0.0855055
-0.0858308
-0.0874576
-0.089735
-0.0929885
-0.0968927
-0.101773
-0.106328
-0.110557
-0.11316
-0.113811
-0.11251
-0.109256
-0.105677
-0.102749
-0.100472
-0.0994955
-0.0988448
-0.0978688
-0.0968927
-0.095266
-0.0933139
-0.0916871
-0.0903857
-0.0900604
-0.0907111
-0.0920125
-0.0936392
-0.0955913
-0.0968927
-0.0985195
-0.0998209
-0.101448
-0.103725
-0.106653
-0.109581
-0.112184
-0.114462
-0.116088
-0.11739
-0.118691
-0.119342
-0.119342
-0.118366
-0.117064
-0.115112
-0.112184
-0.108605
-0.104376
-0.0998209
-0.095266
-0.0907111
-0.0871322
-0.0848548
-0.083228
-0.0822519
-0.0816012
-0.0812759
-0.0809505
-0.0806252
-0.0799745
-0.0793238
-0.0789984
-0.0793238
-0.0809505
-0.084204
-0.0881083
-0.0926632
-0.0968927
-0.101122
-0.104701
-0.107629
-0.110232
-0.11251
-0.113811
-0.114462
-0.114462
-0.113811
-0.11251
-0.110883
-0.10828
-0.105026
-0.101122
-0.0965674
-0.0913618
-0.0858308
-0.0796491
-0.0737928
-0.0685872
-0.063707
-0.0594774
-0.0568746
-0.0549225
-0.0539465
-0.0532957
-0.0532957
-0.0542718
-0.0562239
-0.0588267
-0.0630563
-0.0682619
-0.0744435
-0.0806252
-0.0864815
-0.0916871
-0.096242
-0.100146
-0.103725
-0.106328
-0.10828
-0.108931
-0.10828
-0.106328
-0.103074
-0.0985195
-0.0933139
-0.0871322
-0.0809505
-0.0747689
-0.0685872
-0.0627309
-0.0572
-0.0519943
-0.0471141
-0.0428845
-0.0383296
-0.0341001
-0.0308466
-0.0288945
-0.0282438
-0.0292198
-0.0305212
-0.0314973
-0.032148
-0.0327987
-0.0334494
-0.0344254
-0.0363775
-0.038655
-0.0419085
-0.0454873
-0.0490662
-0.0523197
-0.0549225
-0.0575253
-0.0601281
-0.0630563
-0.0669605
-0.0721661
-0.0786731
-0.0858308
-0.0936392
-0.101448
-0.108605
-0.115438
-0.120643
-0.124222
-0.1265
-0.127476
-0.127476
-0.126825
-0.124873
-0.12227
-0.118041
-0.112184
-0.104701
-0.095266
-0.0845294
-0.0737928
-0.063707
-0.0549225
-0.0474394
-0.0422338
-0.0393057
-0.0380043
-0.0380043
-0.0383296
-0.038655
-0.038655
-0.0393057
-0.0402817
-0.0425592
-0.046138
-0.0497169
-0.0539465
-0.058176
-0.0620802
-0.0653337
-0.0679365
-0.070214
-0.0718407
-0.0728168
-0.0731421
-0.0724914
-0.0708647
-0.0685872
-0.0663098
-0.064683
-0.0640323
-0.0643577
-0.0659844
-0.0685872
-0.0715154
-0.0744435
-0.0773717
-0.0802998
-0.083228
-0.0855055
-0.0874576
-0.088759
-0.0900604
-0.0910364
-0.0916871
-0.0916871
-0.0910364
-0.0894097
-0.0871322
-0.0845294
-0.0822519
-0.0802998
-0.0789984
-0.0786731
-0.0783477
-0.0786731
-0.0783477
-0.0780224
-0.076721
-0.0754196
-0.0741182
-0.0728168
-0.0724914
-0.0731421
-0.0747689
-0.0770463
-0.0786731
-0.0796491
-0.0796491
-0.0780224
-0.0754196
-0.0721661
-0.0682619
-0.064683
-0.0614295
-0.0591521
-0.0568746
-0.0549225
-0.0523197
-0.0490662
-0.045162
-0.0415831
-0.0380043
-0.0347508
-0.0314973
-0.0272677
-0.0223875
-0.0168565
-0.0113255
-0.00579457
-0.00123967
0.00233919
0.00461664
0.00591805
0.0068941
0.0075448
0.0081955
0.00852085
0.0075448
0.00526734
0.00168849
-0.00319177
-0.00969878
-0.0178325
-0.0275931
-0.038655
-0.0510183
-0.063707
-0.0760703
-0.0868069
-0.0955913
-0.102098
-0.106653
-0.109256
-0.110883
-0.111208
-0.111208
-0.109907
-0.10828
-0.105352
-0.101122
-0.095266
-0.0881083
-0.0796491
-0.0708647
-0.0624056
-0.0555732
-0.0500422
-0.0454873
-0.0422338
-0.039631
-0.0376789
-0.0367029
-0.0367029
-0.0376789
-0.0393057
-0.0412578
-0.0435352
-0.0454873
-0.0471141
-0.0480901
-0.0484155
-0.0480901
-0.0477648
-0.0474394
-0.0467887
-0.0454873
-0.0432099
-0.0406071
-0.0376789
-0.0354015
-0.0334494
-0.0324733
-0.032148
-0.0318226
-0.0308466
-0.0292198
-0.0272677
-0.0253156
-0.0233635
-0.0223875
-0.0217367
-0.0220621
-0.0230382
-0.0240142
-0.0249903
-0.0253156
-0.0246649
-0.0233635
-0.0217367
-0.0204353
-0.0197846
-0.02011
-0.0217367
-0.0236889
-0.0262917
-0.0288945
-0.0308466
-0.0324733
-0.0327987
-0.0327987
-0.0334494
-0.0344254
-0.0357268
-0.0376789
-0.0393057
-0.0406071
-0.0409324
-0.039631
-0.0380043
-0.0360522
-0.0354015
-0.0357268
-0.0373536
-0.0399564
-0.0432099
-0.0471141
-0.0506929
-0.0542718
-0.0568746
-0.0588267
-0.0598028
-0.0601281
-0.0594774
-0.058176
-0.0568746
-0.0562239
-0.0562239
-0.0565493
-0.0572
-0.0572
-0.0565493
-0.0545972
-0.0513436
-0.0474394
-0.0428845
-0.0376789
-0.032148
-0.026617
-0.021086
-0.0158804
-0.0113255
-0.00742133
-0.00449317
-0.00221572
6.17361E-005
0.00168849
0.00201384
0.00103779
-0.00189037
-0.00546922
-0.0100241
-0.014579
-0.0178325
-0.0207607
-0.0230382
-0.0259663
-0.0295452
-0.0344254
-0.0402817
-0.0464634
-0.0519943
-0.0562239
-0.0591521
-0.0598028
-0.0591521
-0.0572
-0.0549225
-0.052645
-0.0503676
-0.0484155
-0.0464634
-0.0441859
-0.0419085
-0.0399564
-0.0376789
-0.0360522
-0.0350761
-0.0344254
-0.0341001
-0.0344254
-0.0347508
-0.0357268
-0.0370282
-0.0383296
-0.0399564
-0.0415831
-0.0422338
-0.0419085
-0.039631
-0.0360522
-0.0314973
-0.0272677
-0.0233635
-0.0204353
-0.0181579
-0.0165311
-0.0152297
-0.0142537
-0.013603
-0.0126269
-0.0110002
-0.00904808
-0.00644527
-0.00319177
-0.000588965
0.00168849
0.00298989
0.00266454
0.000712437
-0.00254107
-0.00677062
-0.0119762
-0.0171818
-0.0214114
-0.0240142
-0.0246649
-0.0243396
-0.0230382
-0.0214114
-0.0191339
-0.0171818
-0.0158804
-0.0155551
-0.0162058
-0.0178325
-0.0197846
-0.021086
-0.0214114
-0.0194593
-0.0155551
-0.00969878
-0.00221572
0.00591805
0.0140518
0.0215349
0.0283672
0.0342235
0.0397545
0.0446348
0.0491897
0.0530939
0.0563474
0.0582995
0.0589502
0.0576488
0.055046
0.0511418
0.0475629
0.0439841
0.0410559
0.0381277
0.0355249
0.0325968
0.0293433
0.0251137
0.0208842
0.0163293
0.0124251
0.0094969
0.00721945
0.0062434
0.0062434
0.00721945
0.00917155
0.0120997
0.0160039
0.0202335
0.0247884
0.0286926
0.0319461
0.0348742
0.0368263
0.0384531
0.0404052
0.0423573
0.0446348
0.0462615
0.0475629
0.0478883
0.0469122
0.0446348
0.0410559
0.0361756
0.029994
0.0231616
0.0163293
0.00917155
0.00266454
-0.00351712
-0.00937343
-0.0152297
-0.0214114
-0.0272677
-0.0327987
-0.0383296
-0.0432099
-0.0477648
-0.0519943
-0.0558986
-0.0594774
-0.0627309
-0.0650084
-0.0656591
-0.064683
-0.0627309
-0.0598028
-0.0568746
-0.0545972
-0.052645
-0.0513436
-0.0500422
-0.0487408
-0.0471141
-0.0445113
-0.0415831
-0.0389803
-0.0367029
-0.0354015
-0.0344254
-0.0337747
-0.0334494
-0.033124
-0.032148
-0.0305212
-0.0282438
-0.025641
-0.0240142
-0.0240142
-0.0259663
-0.0292198
-0.033124
-0.0370282
-0.0406071
-0.0435352
-0.046138
-0.0487408
-0.0510183
-0.0529704
-0.0545972
-0.0555732
-0.0558986
-0.0558986
-0.0549225
-0.0532957
-0.0510183
-0.0487408
-0.0464634
-0.0445113
-0.0422338
-0.0389803
-0.0347508
-0.0288945
-0.0220621
-0.0149044
-0.00807203
-0.00254107
0.00136314
0.00331524
0.00396594
0.00266454
6.17361E-005
-0.00319177
-0.00774668
-0.0123016
-0.0168565
-0.0217367
-0.026617
-0.0318226
-0.0373536
-0.0425592
-0.0480901
-0.0536211
-0.0588267
-0.0630563
-0.0656591
-0.0666351
-0.0666351
-0.0663098
-0.0663098
-0.0656591
-0.0640323
-0.0607788
-0.0558986
-0.0497169
-0.0425592
-0.0354015
-0.0285691
-0.0223875
-0.0171818
-0.0126269
-0.00904808
-0.00611992
-0.00384247
-0.00221572
-0.00123967
-0.000588965
-0.000263614
-0.000263614
-0.000263614
-0.000914315
-0.00221572
-0.00416782
-0.00709598
-0.0106748
-0.0139283
-0.0171818
-0.02011
-0.0233635
-0.0272677
-0.0318226
-0.0373536
-0.0428845
-0.0480901
-0.052645
-0.0568746
-0.0607788
-0.0643577
-0.0672858
-0.0692379
-0.0692379
-0.0676112
-0.0643577
-0.0604535
-0.0558986
-0.0513436
-0.0464634
-0.0415831
-0.0363775
-0.0298705
-0.0223875
-0.013603
-0.00416782
0.00526734
0.0143772
0.0221856
0.0277165
0.03097
0.0319461
0.03097
0.0277165
0.0231616
0.0173053
0.010473
0.00331524
-0.00351712
-0.0106748
-0.0175072
-0.0243396
-0.0311719
-0.0383296
-0.0448366
-0.0510183
-0.0562239
-0.0598028
-0.0614295
-0.0604535
-0.0572
-0.052645
-0.0471141
-0.0419085
-0.0367029
-0.0324733
-0.0292198
-0.0262917
-0.0236889
-0.0207607
-0.0181579
-0.0165311
-0.0162058
-0.0171818
-0.0197846
-0.0236889
-0.0288945
-0.0341001
-0.0393057
-0.0432099
-0.0454873
-0.0464634
-0.0458127
-0.0441859
-0.0422338
-0.0406071
-0.0399564
-0.0406071
-0.0419085
-0.0432099
-0.0432099
-0.0422338
-0.0399564
-0.0357268
-0.0288945
-0.0194593
-0.00709598
0.0075448
0.0241377
0.0423573
0.061553
0.0823754
0.104499
0.12825
0.154278
0.182583
0.213166
0.246677
0.283117
0.322159
0.364454
0.408702
0.453275
0.496872
0.537215
0.574305
0.607817
0.637098
0.66215
0.682647
0.697939
0.707699
0.711278
0.70835
0.699891
0.686226
0.668006
0.644581
0.61595
0.582114
0.543722
0.501102
0.454902
0.406099
0.35567
0.304915
0.254811
0.205033
0.155905
0.108729
0.0644811
0.0238123
-0.0119762
-0.0432099
-0.0695633
-0.0907111
-0.107304
-0.119342
-0.12715
-0.131705
-0.133007
-0.13138
-0.127476
-0.12227
-0.115763
-0.10828
-0.100472
-0.0923378
-0.084204
-0.0754196
-0.0659844
-0.0558986
-0.0458127
-0.0363775
-0.0285691
-0.0223875
-0.0181579
-0.0158804
-0.0149044
-0.014579
-0.0149044
-0.0162058
-0.0181579
-0.02011
-0.0220621
-0.0240142
-0.0262917
-0.0292198
-0.032148
-0.0350761
-0.0380043
-0.0399564
-0.0406071
-0.0402817
-0.0393057
-0.0376789
-0.0354015
-0.0324733
-0.0282438
-0.0236889
-0.0184832
-0.0123016
-0.00546922
0.00136314
0.0081955
0.0143772
0.0189321
0.0225109
0.0251137
0.0267405
0.0280419
0.0286926
0.0280419
0.0264151
0.023487
0.0182814
0.0117744
0.00429129
-0.00254107
-0.00904808
-0.014579
-0.0188086
-0.0220621
-0.0249903
-0.0269424
-0.0275931
-0.0272677
-0.0249903
-0.0214114
-0.0171818
-0.0126269
-0.00807203
-0.00384247
0.000387087
0.0055927
0.010473
0.0143772
0.0173053
0.0189321
0.0192574
0.0176307
0.0143772
0.00982225
0.00429129
-0.00189037
-0.00774668
-0.013603
-0.0191339
-0.0243396
-0.0288945
-0.0327987
-0.0357268
-0.0380043
-0.0389803
-0.0393057
-0.0380043
-0.0354015
-0.0301959
-0.0230382
-0.0142537
-0.00514387
0.00364059
0.011449
0.0182814
0.0241377
0.0286926
0.0325968
0.0355249
0.0378024
0.0400799
0.042032
0.0436587
0.0452855
0.0465869
0.0478883
0.0491897
0.0511418
0.0534192
0.0553713
0.0566727
0.0566727
0.056022
0.0547206
0.0540699
0.0547206
0.0563474
0.0592755
0.062529
0.0657825
0.0683853
0.0703374
0.0713135
0.0709882
0.0696867
0.0677346
0.0654572
0.0628544
0.0612276
0.0605769
0.0612276
0.0628544
0.0651318
0.0670839
0.0696867
0.0726149
0.0765191
0.0820501
0.0882317
0.0947387
0.100595
0.105475
0.10938
0.112308
0.114585
0.116863
0.119465
0.122068
0.124996
0.127599
0.130527
0.132805
0.135082
0.13736
0.139312
0.141589
0.144192
0.147771
0.152326
0.157531
0.163713
0.17022
0.177378
0.184861
0.192669
0.201128
0.210238
0.220649
0.231061
0.241472
0.251558
0.260342
0.267825
0.274007
0.278562
0.28149
0.283767
0.285069
0.285719
0.286045
0.28637
0.286696
0.287672
0.288322
0.289298
0.289949
0.2906
0.29125
0.291901
0.292877
0.293528
0.294179
0.294504
0.295155
0.295805
0.297107
0.298083
0.299384
0.30036
0.301336
0.301662
0.300686
0.298734
0.296131
0.292552
0.288973
0.284418
0.279538
0.274332
0.269127
0.26327
0.257414
0.251883
0.247003
0.242773
0.237893
0.232362
0.22553
0.217721
0.209587
0.201128
0.192344
0.182583
0.171521
0.159158
0.145819
0.131829
0.117839
0.103523
0.0892078
0.074567
0.0605769
0.0472376
0.0345489
0.0228363
0.0124251
0.00266454
-0.00546922
-0.0129523
-0.0188086
-0.0230382
-0.025641
-0.026617
-0.0262917
-0.0249903
-0.0220621
-0.0184832
-0.0149044
-0.0119762
-0.0100241
-0.00937343
-0.00937343
-0.0103495
-0.0113255
-0.0129523
-0.0155551
-0.0188086
-0.0230382
-0.0275931
-0.033124
-0.0393057
-0.0471141
-0.0562239
-0.0666351
-0.0783477
-0.0910364
-0.103725
-0.115763
-0.125849
-0.133657
-0.139188
-0.142442
-0.144394
-0.145045
-0.144394
-0.143092
-0.14049
-0.137562
-0.133983
-0.130404
-0.125849
-0.120318
-0.11316
-0.105677
-0.0981941
-0.0920125
-0.0871322
-0.084204
-0.0835533
-0.0845294
-0.0868069
-0.089735
-0.0933139
-0.0965674
-0.0994955
-0.102424
-0.105677
-0.109581
-0.113486
-0.11739
-0.120643
-0.123246
-0.124873
-0.125849
-0.126174
-0.1265
-0.1265
-0.1265
-0.126174
-0.125198
-0.123571
-0.121294
-0.118691
-0.116088
-0.11316
-0.110883
-0.108605
-0.106328
-0.1034
-0.0994955
-0.0949406
-0.089735
-0.0851801
-0.0812759
-0.0786731
-0.0763956
-0.0744435
-0.0724914
-0.0708647
-0.0695633
-0.0689126
-0.0689126
-0.0692379
-0.0695633
-0.0695633
-0.0692379
-0.0682619
-0.0669605
-0.0666351
-0.0676112
-0.0695633
-0.0724914
-0.0750942
-0.077697
-0.0789984
-0.0789984
-0.0770463
-0.0737928
-0.0692379
-0.0643577
-0.0594774
-0.0552479
-0.0519943
-0.0500422
-0.0493915
-0.0500422
-0.051669
-0.0539465
-0.0568746
-0.0604535
-0.0640323
-0.0679365
-0.0715154
-0.0744435
-0.0770463
-0.0783477
-0.0789984
-0.0796491
-0.0799745
-0.0806252
-0.0812759
-0.0819266
-0.0819266
-0.0816012
-0.0809505
-0.0796491
-0.0783477
-0.0773717
-0.076721
-0.076721
-0.0773717
-0.0789984
-0.0812759
-0.0848548
-0.0890843
-0.0939646
-0.0988448
-0.103074
-0.106003
-0.107955
-0.108605
-0.10828
-0.106328
-0.102749
-0.0981941
-0.0923378
-0.0858308
-0.0796491
-0.0734675
-0.0676112
-0.0620802
-0.0568746
-0.051669
-0.0464634
-0.0412578
-0.0360522
-0.0318226
-0.0288945
-0.0279184
-0.0292198
-0.0324733
-0.0380043
-0.0448366
-0.052645
-0.0611042
-0.0685872
-0.0754196
-0.0809505
-0.0851801
-0.0884336
-0.0900604
-0.0907111
-0.0900604
-0.088759
-0.0864815
-0.083228
-0.0786731
-0.0731421
-0.0666351
-0.0598028
-0.0523197
-0.045162
-0.0380043
-0.032148
-0.0275931
-0.0243396
-0.0227128
-0.0220621
-0.0233635
-0.025641
-0.0288945
-0.032148
-0.0354015
-0.0383296
-0.0415831
-0.045162
-0.0490662
-0.0536211
-0.058176
-0.0624056
-0.0663098
-0.0692379
-0.0715154
-0.0728168
-0.0731421
-0.0724914
-0.0715154
-0.0698886
-0.0676112
-0.0653337
-0.0624056
-0.0594774
-0.0558986
-0.052645
-0.0500422
-0.0474394
-0.0454873
-0.0441859
-0.0435352
-0.0432099
-0.0435352
-0.0441859
-0.0454873
-0.0474394
-0.0497169
-0.051669
-0.0536211
-0.0555732
-0.0572
-0.0588267
-0.0601281
-0.0614295
-0.0627309
-0.0640323
-0.0656591
-0.0672858
-0.0695633
-0.0724914
-0.0750942
-0.0770463
-0.0780224
-0.0780224
-0.076721
-0.0737928
-0.070214
-0.0666351
-0.063707
-0.0617549
-0.0607788
-0.0604535
-0.0598028
-0.0578507
-0.0539465
-0.0490662
-0.0428845
-0.0370282
-0.0314973
-0.0269424
-0.0233635
-0.0207607
-0.0191339
-0.0184832
-0.0184832
-0.0188086
-0.0191339
-0.0194593
-0.0194593
-0.0191339
-0.0194593
-0.02011
-0.0220621
-0.0249903
-0.0288945
-0.0337747
-0.038655
-0.0435352
-0.0477648
-0.0513436
-0.0539465
-0.0558986
-0.0572
-0.058176
-0.0588267
-0.0588267
-0.0588267
-0.058176
-0.0578507
-0.0572
-0.0572
-0.0568746
-0.0565493
-0.0558986
-0.0545972
-0.0529704
-0.0513436
-0.0500422
-0.0493915
-0.0493915
-0.0500422
-0.0513436
-0.0532957
-0.0558986
-0.058176
-0.0591521
-0.0594774
-0.0591521
-0.0594774
-0.0601281
-0.0617549
-0.0633816
-0.0650084
-0.0659844
-0.0666351
-0.0669605
-0.0672858
-0.0685872
-0.0698886
-0.0708647
-0.07119
-0.07119
-0.0705393
-0.070214
-0.0692379
-0.0679365
-0.0650084
-0.0607788
-0.0555732
-0.0500422
-0.0441859
-0.0383296
-0.0327987
-0.0279184
-0.0230382
-0.0184832
-0.0139283
-0.00904808
-0.00481852
-0.00156502
0.000387087
0.000387087
-0.00189037
-0.00514387
-0.0103495
-0.0165311
-0.0230382
-0.0305212
-0.038655
-0.0474394
-0.0568746
-0.0656591
-0.0737928
-0.0802998
-0.0851801
-0.0884336
-0.0894097
-0.0884336
-0.0855055
-0.0809505
-0.0750942
-0.0682619
-0.0617549
-0.0552479
-0.0493915
-0.0441859
-0.039631
-0.0357268
-0.0318226
-0.0282438
-0.0243396
-0.0204353
-0.0165311
-0.0132776
-0.0113255
-0.0110002
-0.0126269
-0.0155551
-0.0197846
-0.0249903
-0.0308466
-0.0367029
-0.0422338
-0.0467887
-0.0503676
-0.0529704
-0.0545972
-0.0562239
-0.0575253
-0.0585014
-0.0594774
-0.0601281
-0.0601281
-0.0601281
-0.0604535
-0.0604535
-0.0604535
-0.0591521
-0.0572
-0.0542718
-0.0510183
-0.0480901
-0.045162
-0.0425592
-0.0402817
-0.0380043
-0.0350761
-0.0314973
-0.0285691
-0.026617
-0.0253156
-0.0249903
-0.0249903
-0.0243396
-0.0233635
-0.0220621
-0.0207607
-0.0197846
-0.0194593
-0.0197846
-0.021086
-0.0227128
-0.0236889
-0.0243396
-0.0243396
-0.0233635
-0.0227128
-0.0227128
-0.0233635
-0.0243396
-0.026617
-0.0295452
-0.0324733
-0.0347508
-0.0354015
-0.0347508
-0.0327987
-0.0308466
-0.0292198
-0.0285691
-0.0282438
-0.0285691
-0.0282438
-0.0272677
-0.0249903
-0.0217367
-0.0168565
-0.0106748
-0.00351712
0.00331524
0.0094969
0.0147025
0.0176307
0.0182814
0.01698
0.0143772
0.0111237
0.0081955
0.0062434
0.00461664
0.00364059
0.00298989
0.00233919
0.00103779
-0.000914315
-0.00319177
-0.00644527
-0.00937343
-0.0116509
-0.0129523
-0.0132776
-0.0123016
-0.0106748
-0.00872273
-0.00644527
-0.00351712
6.17361E-005
0.00494199
0.0107983
0.0166546
0.0218602
0.0264151
0.029994
0.0325968
0.0338982
0.0348742
0.0345489
0.0335728
0.0319461
0.0296686
0.0264151
0.0218602
0.0163293
0.00982225
0.00201384
-0.00579457
-0.014579
-0.0233635
-0.0324733
-0.0415831
-0.0506929
-0.0598028
-0.0689126
-0.0773717
-0.0851801
-0.0916871
-0.0968927
-0.100472
-0.102749
-0.104376
-0.105677
-0.106653
-0.107629
-0.10828
-0.10828
-0.107955
-0.106653
-0.105026
-0.103725
-0.102749
-0.102098
-0.101448
-0.101122
-0.100146
-0.0991702
-0.0978688
-0.0965674
-0.096242
-0.0968927
-0.0985195
-0.100797
-0.103074
-0.105677
-0.107304
-0.10828
-0.10828
-0.106979
-0.105352
-0.102749
-0.0994955
-0.0959167
-0.0920125
-0.0874576
-0.0822519
-0.076721
-0.0705393
-0.0650084
-0.0594774
-0.0545972
-0.0500422
-0.046138
-0.0425592
-0.0393057
-0.0367029
-0.0341001
-0.0324733
-0.0311719
-0.0301959
-0.0298705
-0.0301959
-0.0314973
-0.0334494
-0.0357268
-0.0383296
-0.0406071
-0.0435352
-0.0467887
-0.0503676
-0.0545972
-0.0588267
-0.0624056
-0.0656591
-0.0676112
-0.0692379
-0.070214
-0.07119
-0.0724914
-0.0744435
-0.076721
-0.0789984
-0.0799745
-0.0799745
-0.0793238
-0.0780224
-0.0770463
-0.0763956
-0.0760703
-0.0763956
-0.0773717
-0.0786731
-0.0796491
-0.0802998
-0.0796491
-0.0783477
-0.0760703
-0.0741182
-0.0721661
-0.0708647
-0.0705393
-0.0708647
-0.0724914
-0.0754196
-0.0789984
-0.0829026
-0.0871322
-0.0910364
-0.0939646
-0.0955913
-0.0955913
-0.0942899
-0.0926632
-0.0913618
-0.0910364
-0.0910364
-0.0916871
-0.0923378
-0.0929885
-0.0936392
-0.0942899
-0.0946153
-0.0949406
-0.0949406
-0.0946153
-0.0936392
-0.0923378
-0.0900604
-0.0871322
-0.083228
-0.0783477
-0.0734675
-0.0682619
-0.063707
-0.0594774
-0.0558986
-0.0532957
-0.051669
-0.0503676
-0.0493915
-0.0480901
-0.0471141
-0.0458127
-0.0454873
-0.046138
-0.0480901
-0.0513436
-0.0555732
-0.0598028
-0.063707
-0.0669605
-0.0695633
-0.0721661
-0.0744435
-0.0763956
-0.077697
-0.0783477
-0.0783477
-0.0773717
-0.0760703
-0.0750942
-0.0744435
-0.0737928
-0.0734675
-0.0728168
-0.0721661
-0.0715154
-0.070214
-0.0695633
-0.0698886
-0.07119
-0.0737928
-0.0773717
-0.0812759
-0.0851801
-0.089735
-0.0942899
-0.0991702
-0.103725
-0.107304
-0.108931
-0.10828
-0.105677
-0.101773
-0.0968927
-0.0923378
-0.0881083
-0.0838787
-0.0796491
-0.0750942
-0.0708647
-0.0656591
-0.0588267
-0.0503676
-0.039631
-0.0272677
-0.0132776
0.00103779
0.0163293
0.0322714
0.0488643
0.0664332
0.0853036
0.105801
0.128901
0.154603
0.183234
0.214793
0.24863
0.284418
0.321183
0.358273
0.394387
0.428874
0.461409
0.491016
0.517694
0.540144
0.558038
0.571052
0.579186
0.582439
0.581138
0.574305
0.562267
0.544048
0.519321
0.489064
0.453275
0.413582
0.370636
0.325412
0.278887
0.231061
0.182583
0.134106
0.0862796
0.0397545
-0.00384247
-0.0441859
-0.0806252
-0.112835
-0.140815
-0.164566
-0.184737
-0.20133
-0.214995
-0.226057
-0.234191
-0.239396
-0.241023
-0.239071
-0.23354
-0.22443
-0.213043
-0.199703
-0.185063
-0.169771
-0.154154
-0.138538
-0.122921
-0.107955
-0.0939646
-0.0812759
-0.0708647
-0.0620802
-0.0552479
-0.0503676
-0.0471141
-0.0454873
-0.045162
-0.0454873
-0.0467887
-0.0487408
-0.051669
-0.0555732
-0.0607788
-0.0669605
-0.0731421
-0.0786731
-0.0835533
-0.0871322
-0.089735
-0.0903857
-0.089735
-0.0884336
-0.0871322
-0.0858308
-0.0845294
-0.0838787
-0.0838787
-0.0845294
-0.0855055
-0.0864815
-0.0868069
-0.0874576
-0.0881083
-0.089735
-0.0923378
-0.096242
-0.100797
-0.106653
-0.11316
-0.120318
-0.127476
-0.133657
-0.138212
-0.14049
-0.14049
-0.138863
-0.135609
-0.132031
-0.128126
-0.124548
-0.120318
-0.116088
-0.11251
-0.109581
-0.107304
-0.106003
-0.105352
-0.105352
-0.105677
-0.106979
-0.108931
-0.111859
-0.115763
-0.119667
-0.123897
-0.12715
-0.129753
-0.131705
-0.132356
-0.132031
-0.131055
-0.128777
-0.124548
-0.119342
-0.11316
-0.106328
-0.0985195
-0.0903857
-0.0819266
-0.0734675
-0.0656591
-0.058176
-0.0510183
-0.0441859
-0.0383296
-0.033124
-0.0292198
-0.0269424
-0.026617
-0.0285691
-0.0324733
-0.0376789
-0.0438606
-0.0500422
-0.0562239
-0.0617549
-0.0669605
-0.0718407
-0.0760703
-0.0796491
-0.0819266
-0.083228
-0.0829026
-0.0812759
-0.0786731
-0.0757449
-0.0734675
-0.0718407
-0.0715154
-0.07119
-0.070214
-0.0679365
-0.0643577
-0.0594774
-0.0532957
-0.0467887
-0.0399564
-0.0341001
-0.0292198
-0.025641
-0.0230382
-0.0207607
-0.0191339
-0.0175072
-0.0155551
-0.0139283
-0.0123016
-0.0106748
-0.00937343
-0.00937343
-0.0103495
-0.0119762
-0.0142537
-0.0165311
-0.0181579
-0.0188086
-0.0181579
-0.0165311
-0.0139283
-0.0110002
-0.00677062
-0.00221572
0.00364059
0.0101476
0.0166546
0.0228363
0.0283672
0.0329221
0.0368263
0.0410559
0.0449601
0.0491897
0.0530939
0.0573234
0.0618783
0.0670839
0.0726149
0.0781459
0.0830261
0.0872557
0.0905092
0.0927866
0.0947387
0.0966908
0.0989683
0.101246
0.104499
0.108729
0.11426
0.120767
0.127274
0.134432
0.141264
0.148096
0.153953
0.158507
0.162086
0.164364
0.166316
0.168268
0.169895
0.172172
0.174775
0.178354
0.181933
0.185186
0.187464
0.188765
0.189416
0.18909
0.18844
0.187138
0.185512
0.182583
0.17933
0.1751
0.170545
0.16534
0.16046
0.155579
0.150374
0.144517
0.137685
0.129877
0.121743
0.113609
0.105801
0.0983176
0.0908345
0.0833515
0.0748924
0.0651318
0.0537446
0.0407306
0.0270658
0.0127504
-0.00189037
-0.0171818
-0.0334494
-0.0500422
-0.0666351
-0.0829026
-0.0988448
-0.115112
-0.131055
-0.146671
-0.161637
-0.175302
-0.186689
-0.195799
-0.20133
-0.203933
-0.204258
-0.202957
-0.200354
-0.196775
-0.193196
-0.189943
-0.18734
-0.186039
-0.186039
-0.18734
-0.189618
-0.193522
-0.198077
-0.203933
-0.211091
-0.219225
-0.228334
-0.23842
-0.248831
-0.259568
-0.270305
-0.28039
-0.2895
-0.296658
-0.302189
-0.305442
-0.306093
-0.304792
-0.300562
-0.29438
-0.286247
-0.277137
-0.267376
-0.257291
-0.246879
-0.236793
-0.227358
-0.218574
-0.211741
-0.207187
-0.205234
-0.20621
-0.209464
-0.214019
-0.219225
-0.224755
-0.230612
-0.236468
-0.241674
-0.246879
-0.252085
-0.257941
-0.264774
-0.272257
-0.27974
-0.286897
-0.292754
-0.296658
-0.299586
-0.301538
-0.30284
-0.30349
-0.303816
-0.303816
-0.304141
-0.304792
-0.306418
-0.308371
-0.310648
-0.311949
-0.3126
-0.3126
-0.311949
-0.310323
-0.30772
-0.304466
-0.300562
-0.297309
-0.29438
-0.292103
-0.289175
-0.286247
-0.282343
-0.278113
-0.273883
-0.270305
-0.268352
-0.267702
-0.268678
-0.270305
-0.272907
-0.276486
-0.28039
-0.284945
-0.290151
-0.296007
-0.301538
-0.307069
-0.311624
-0.314878
-0.31748
-0.319432
-0.320734
-0.321059
-0.320409
-0.318131
-0.314227
-0.308371
-0.301213
-0.293079
-0.283969
-0.273883
-0.262496
-0.250784
-0.238746
-0.227684
-0.217598
-0.209464
-0.203282
-0.199053
-0.196775
-0.196775
-0.198727
-0.202306
-0.206861
-0.212392
-0.218248
-0.22443
-0.231588
-0.240047
-0.249482
-0.259893
-0.269979
-0.27974
-0.287548
-0.29373
-0.297309
-0.298935
-0.29861
-0.297634
-0.296333
-0.294706
-0.292428
-0.290476
-0.287873
-0.285921
-0.283644
-0.281366
-0.278764
-0.276161
-0.274209
-0.272257
-0.270955
-0.270305
-0.269979
-0.270955
-0.273233
-0.276161
-0.280065
-0.283319
-0.285596
-0.286897
-0.286247
-0.283644
-0.280065
-0.27551
-0.269979
-0.264448
-0.258917
-0.254037
-0.249482
-0.245578
-0.241674
-0.237769
-0.232889
-0.227358
-0.220851
-0.214344
-0.208163
-0.202957
-0.199053
-0.196775
-0.195149
-0.192871
-0.189943
-0.186689
-0.183761
-0.182135
-0.18246
-0.184412
-0.18734
-0.19157
-0.19645
-0.202306
-0.208488
-0.214995
-0.221177
-0.227033
-0.232239
-0.237119
-0.241023
-0.244602
-0.24753
-0.250458
-0.253061
-0.255338
-0.256965
-0.258267
-0.258917
-0.258917
-0.258267
-0.257291
-0.256314
-0.255664
-0.255013
-0.253712
-0.25241
-0.250784
-0.249157
-0.246879
-0.244602
-0.242975
-0.242324
-0.2433
-0.244927
-0.24753
-0.250458
-0.253386
-0.256314
-0.258592
-0.260544
-0.261195
-0.260219
-0.257616
-0.254362
-0.250784
-0.247855
-0.245903
-0.244277
-0.24265
-0.240047
-0.236793
-0.232564
-0.22866
-0.22443
-0.220201
-0.215971
-0.212067
-0.207837
-0.202957
-0.197751
-0.19222
-0.186689
-0.181484
-0.176604
-0.171723
-0.166843
-0.161963
-0.157083
-0.152853
-0.1496
-0.146997
-0.146021
-0.146021
-0.146997
-0.148623
-0.151552
-0.155781
-0.160987
-0.166843
-0.17335
-0.180508
-0.188316
-0.19645
-0.205234
-0.213694
-0.222153
-0.230286
-0.237444
-0.242975
-0.24753
-0.250458
-0.25176
-0.252085
-0.250458
-0.24753
-0.242975
-0.237119
-0.230286
-0.223129
-0.215646
-0.209139
-0.202957
-0.198402
-0.195149
-0.193847
-0.194173
-0.196125
-0.199053
-0.202632
-0.206861
-0.211416
-0.216622
-0.222153
-0.228334
-0.234191
-0.239396
-0.2433
-0.245253
-0.245578
-0.244602
-0.241999
-0.23842
-0.233865
-0.228009
-0.222153
-0.216622
-0.212067
-0.207512
-0.203282
-0.198727
-0.193847
-0.188642
-0.183761
-0.179206
-0.175628
-0.173025
-0.171398
-0.171723
-0.172699
-0.174326
-0.175953
-0.177254
-0.178881
-0.180508
-0.18246
-0.184412
-0.186039
-0.18734
-0.188642
-0.190268
-0.191895
-0.193847
-0.195474
-0.196125
-0.195799
-0.195149
-0.194498
-0.193522
-0.193196
-0.193196
-0.194498
-0.196775
-0.199053
-0.201005
-0.201981
-0.201656
-0.199703
-0.196125
-0.191895
-0.18734
-0.18246
-0.17823
-0.174977
-0.17335
-0.173025
-0.174001
-0.176604
-0.179857
-0.183761
-0.187015
-0.189618
-0.190594
-0.190919
-0.191244
-0.19157
-0.192546
-0.194498
-0.19645
-0.199053
-0.201656
-0.204584
-0.207187
-0.208813
-0.208813
-0.206861
-0.203282
-0.198402
-0.193196
-0.187991
-0.18246
-0.176604
-0.170747
-0.165216
-0.160661
-0.157408
-0.15513
-0.153504
-0.152202
-0.150901
-0.149274
-0.147647
-0.146671
-0.146346
-0.146671
-0.147647
-0.148623
-0.148949
-0.148949
-0.148949
-0.1496
-0.15025
-0.151552
-0.153178
-0.154805
-0.157408
-0.159685
-0.162614
-0.165542
-0.16847
-0.171723
-0.175302
-0.178881
-0.183111
-0.187991
-0.193196
-0.198727
-0.204909
-0.210765
-0.215971
-0.219875
-0.222803
-0.224105
-0.223454
-0.221177
-0.217272
-0.211416
-0.203608
-0.194498
-0.184412
-0.174326
-0.164566
-0.155781
-0.147973
-0.140815
-0.134633
-0.129428
-0.125198
-0.12227
-0.120318
-0.119017
-0.119017
-0.119667
-0.121619
-0.124548
-0.128126
-0.131705
-0.135935
-0.140815
-0.146997
-0.153829
-0.160987
-0.166843
-0.171073
-0.172699
-0.172049
-0.169446
-0.165867
-0.161963
-0.157733
-0.153829
-0.149925
-0.146346
-0.143743
-0.142116
-0.14114
-0.14049
-0.140164
-0.139839
-0.139514
-0.138863
-0.137887
-0.137236
-0.137562
-0.138212
-0.139514
-0.140815
-0.141791
-0.141791
-0.141466
-0.140164
-0.138863
-0.137236
-0.13626
-0.135284
-0.133983
-0.132031
-0.129753
-0.12715
-0.124222
-0.121619
-0.118691
-0.116414
-0.114787
-0.113811
-0.113486
-0.113811
-0.114787
-0.116739
-0.119017
-0.12227
-0.125849
-0.130078
-0.134633
-0.139188
-0.142767
-0.14537
-0.146021
-0.14537
-0.143418
-0.14049
-0.137887
-0.135609
-0.133657
-0.13138
-0.127801
-0.123246
-0.117715
-0.112184
-0.106653
-0.101122
-0.0959167
-0.0907111
-0.0858308
-0.0816012
-0.0773717
-0.0734675
-0.0695633
-0.0659844
-0.0627309
-0.0598028
-0.0578507
-0.0568746
-0.0572
-0.0588267
-0.0614295
-0.0640323
-0.0656591
-0.0666351
-0.0659844
-0.064683
-0.0627309
-0.0604535
-0.0585014
-0.0565493
-0.0549225
-0.0539465
-0.0539465
-0.0545972
-0.0555732
-0.0558986
-0.0552479
-0.0529704
-0.0493915
-0.045162
-0.0406071
-0.0370282
-0.0347508
-0.0341001
-0.0344254
-0.0357268
-0.0376789
-0.0399564
-0.0419085
-0.0435352
-0.0441859
-0.0448366
-0.0454873
-0.0458127
-0.046138
-0.0464634
-0.0467887
-0.0474394
-0.0490662
-0.0513436
-0.0539465
-0.0565493
-0.0594774
-0.0624056
-0.064683
-0.0663098
-0.0666351
-0.0656591
-0.0633816
-0.0604535
-0.0568746
-0.0519943
-0.0464634
-0.0412578
-0.0367029
-0.0334494
-0.0311719
-0.0288945
-0.026617
-0.0230382
-0.0181579
-0.0129523
-0.00807203
-0.00351712
6.17361E-005
0.00201384
0.00201384
-0.00123967
-0.00644527
-0.013603
-0.0217367
-0.0292198
-0.0354015
-0.0409324
-0.0458127
-0.0497169
-0.0536211
-0.0568746
-0.0604535
-0.063707
-0.0669605
-0.0705393
-0.0734675
-0.0757449
-0.0773717
-0.0783477
-0.0780224
-0.0770463
-0.0760703
-0.0750942
-0.0741182
-0.0734675
-0.0731421
-0.0731421
-0.0741182
-0.0763956
-0.0793238
-0.0829026
-0.0864815
-0.089735
-0.0929885
-0.0959167
-0.0981941
-0.0998209
-0.100797
-0.100472
-0.0994955
-0.0978688
-0.0959167
-0.0936392
-0.0916871
-0.0894097
-0.0868069
-0.0835533
-0.0796491
-0.0760703
-0.0724914
-0.0695633
-0.0669605
-0.0653337
-0.0643577
-0.0640323
-0.0643577
-0.0650084
-0.0653337
-0.0650084
-0.064683
-0.0640323
-0.063707
-0.0640323
-0.0650084
-0.0659844
-0.0666351
-0.0666351
-0.0656591
-0.063707
-0.0617549
-0.0598028
-0.0585014
-0.0578507
-0.0575253
-0.0575253
-0.0578507
-0.0578507
-0.0575253
-0.0575253
-0.0575253
-0.0575253
-0.058176
-0.0585014
-0.0594774
-0.0607788
-0.0627309
-0.0643577
-0.0656591
-0.0663098
-0.0656591
-0.063707
-0.0611042
-0.058176
-0.0562239
-0.0552479
-0.0549225
-0.0545972
-0.0542718
-0.0539465
-0.052645
-0.0506929
-0.0480901
-0.0445113
-0.0415831
-0.0393057
-0.038655
-0.0393057
-0.0409324
-0.0435352
-0.0464634
-0.0490662
-0.0506929
-0.0510183
-0.0497169
-0.0471141
-0.0435352
-0.0393057
-0.0354015
-0.0314973
-0.0275931
-0.0236889
-0.02011
-0.0175072
-0.0152297
-0.013603
-0.0119762
-0.0103495
-0.00872273
-0.00709598
-0.00644527
-0.00677062
-0.00774668
-0.00969878
-0.0123016
-0.0155551
-0.0191339
-0.0233635
-0.0275931
-0.0324733
-0.0376789
-0.0432099
-0.0487408
-0.0542718
-0.0594774
-0.0643577
-0.0682619
-0.0705393
-0.0715154
-0.0705393
-0.0669605
-0.0607788
-0.052645
-0.0432099
-0.0337747
-0.0246649
-0.0165311
-0.00969878
-0.00384247
0.000712437
0.00591805
0.0120997
0.0182814
0.024463
0.0290179
0.0312954
0.0319461
0.029994
0.0260898
0.0205588
0.0143772
0.0081955
0.00233919
-0.00319177
-0.00839738
-0.0129523
-0.0168565
-0.0194593
-0.0214114
-0.0223875
-0.0227128
-0.0220621
-0.0204353
-0.0184832
-0.0158804
-0.0139283
-0.0126269
-0.0129523
-0.013603
-0.014579
-0.0155551
-0.0158804
-0.0152297
-0.013603
-0.0103495
-0.00579457
0.000387087
0.00917155
0.0205588
0.0345489
0.0514671
0.0716389
0.0950641
0.122068
0.153302
0.188765
0.227807
0.269452
0.313374
0.358598
0.404798
0.451323
0.496872
0.540469
0.581463
0.618878
0.651739
0.680044
0.70347
0.721689
0.735029
0.742512
0.744138
0.739258
0.727546
0.709651
0.686226
0.658246
0.626687
0.59285
0.556411
0.517694
0.4767
0.433429
0.388205
0.341029
0.292877
0.244725
0.198526
0.155254
0.11491
0.0787966
0.0459362
0.0173053
-0.00774668
-0.0301959
-0.0493915
-0.0663098
-0.0806252
-0.0920125
-0.101122
-0.106979
-0.110232
-0.110557
-0.10828
-0.1034
-0.096242
-0.0874576
-0.077697
-0.0672858
-0.0578507
-0.0500422
-0.0435352
-0.0383296
-0.0341001
-0.0301959
-0.0272677
-0.025641
-0.0249903
-0.025641
-0.0275931
-0.0311719
-0.0354015
-0.0406071
-0.046138
-0.051669
-0.0568746
-0.0624056
-0.0672858
-0.0718407
-0.0754196
-0.0773717
-0.0770463
-0.0744435
-0.0705393
-0.0653337
-0.0594774
-0.0532957
-0.0474394
-0.0419085
-0.0370282
-0.0327987
-0.0288945
-0.0249903
-0.0197846
-0.0139283
-0.00709598
-0.000263614
0.0062434
0.011449
0.0147025
0.01698
0.0182814
0.0195828
0.0208842
0.0221856
0.023487
0.0254391
0.0270658
0.0286926
0.029994
0.0319461
0.0338982
0.0358503
0.0371517
0.0378024
0.037477
0.036501
0.0335728
0.029994
0.0251137
0.0205588
0.0160039
0.0117744
0.00787015
0.00396594
-0.000263614
-0.00416782
-0.00839738
-0.0123016
-0.0162058
-0.0194593
-0.021086
-0.0204353
-0.0181579
-0.0142537
-0.0100241
-0.00579457
-0.00254107
6.17361E-005
0.00266454
0.00461664
0.00656875
0.00852085
0.0111237
0.0143772
0.0176307
0.0205588
0.0228363
0.0238123
0.0238123
0.0228363
0.0212095
0.0195828
0.0182814
0.01698
0.0153532
0.0137265
0.0117744
0.0107983
0.0117744
0.0140518
0.0176307
0.0215349
0.0251137
0.0280419
0.0303193
0.0325968
0.0351996
0.0394291
0.0452855
0.0527685
0.0612276
0.0706628
0.080098
0.0895331
0.0983176
0.107102
0.115561
0.123044
0.129226
0.134432
0.138336
0.140939
0.142565
0.143216
0.143541
0.143867
0.143867
0.144517
0.145493
0.145819
0.144843
0.14224
0.137685
0.131503
0.124671
0.117513
0.111006
0.10515
0.10092
0.0979922
0.0963655
0.0966908
0.0979922
0.100595
0.103849
0.107753
0.111657
0.116212
0.121417
0.127924
0.135082
0.143216
0.151675
0.160134
0.168919
0.178028
0.187138
0.196248
0.205358
0.214468
0.223903
0.232687
0.241472
0.249931
0.258065
0.265873
0.273682
0.280189
0.285069
0.288322
0.290274
0.290925
0.290925
0.289949
0.288648
0.287021
0.285394
0.284743
0.284418
0.284418
0.284418
0.283767
0.283442
0.283442
0.284743
0.287346
0.291576
0.297107
0.30459
0.313374
0.324111
0.335823
0.348512
0.361526
0.37454
0.387554
0.399592
0.410329
0.418463
0.423993
0.426271
0.42562
0.422367
0.41651
0.408702
0.398616
0.385927
0.371287
0.354694
0.336474
0.316953
0.296781
0.276284
0.256438
0.236917
0.218047
0.200478
0.184535
0.171196
0.160134
0.15135
0.144192
0.137685
0.131829
0.126298
0.121417
0.117188
0.113284
0.109054
0.104174
0.0976669
0.0901838
0.0813994
0.0709882
0.0596009
0.0469122
0.0338982
0.0208842
0.0088462
-0.00189037
-0.0113255
-0.0191339
-0.025641
-0.0308466
-0.0354015
-0.0399564
-0.0438606
-0.0477648
-0.0510183
-0.0532957
-0.0539465
-0.0536211
-0.0523197
-0.0503676
-0.0480901
-0.0458127
-0.0448366
-0.045162
-0.0471141
-0.0503676
-0.0536211
-0.0565493
-0.058176
-0.0585014
-0.058176
-0.0575253
-0.0568746
-0.0562239
-0.0552479
-0.0545972
-0.0542718
-0.0539465
-0.0532957
-0.052645
-0.0513436
-0.0493915
-0.0471141
-0.0441859
-0.0409324
-0.0376789
-0.0344254
-0.0324733
-0.032148
-0.0341001
-0.0380043
-0.0432099
-0.0490662
-0.0542718
-0.0588267
-0.0624056
-0.0650084
-0.0672858
-0.0695633
-0.0721661
-0.0754196
-0.0789984
-0.083228
-0.0864815
-0.0890843
-0.0900604
-0.0894097
-0.0874576
-0.0848548
-0.0819266
-0.0793238
-0.0770463
-0.0747689
-0.0728168
-0.0705393
-0.0676112
-0.0643577
-0.0607788
-0.0572
-0.0529704
-0.0484155
-0.0441859
-0.0399564
-0.0367029
-0.0344254
-0.0324733
-0.0311719
-0.0298705
-0.0292198
-0.0295452
-0.0298705
-0.0305212
-0.0305212
-0.0301959
-0.0295452
-0.0282438
-0.0262917
-0.0240142
-0.0223875
-0.0217367
-0.0223875
-0.0243396
-0.0272677
-0.0308466
-0.0344254
-0.0383296
-0.0419085
-0.0458127
-0.0493915
-0.0532957
-0.0568746
-0.0601281
-0.0630563
-0.0656591
-0.0682619
-0.0695633
-0.0692379
-0.0669605
-0.0633816
-0.0594774
-0.0558986
-0.052645
-0.0506929
-0.0497169
-0.0493915
-0.0497169
-0.0497169
-0.0493915
-0.0487408
-0.0480901
-0.0477648
-0.0471141
-0.0464634
-0.0454873
-0.0438606
-0.0419085
-0.0393057
-0.0360522
-0.032148
-0.0282438
-0.0253156
-0.0230382
-0.0217367
-0.02011
-0.0184832
-0.0158804
-0.0126269
-0.00904808
-0.00481852
-0.00123967
0.00103779
0.00136314
-0.000263614
-0.00319177
-0.00807203
-0.0132776
-0.0184832
-0.0230382
-0.0272677
-0.0308466
-0.0341001
-0.0373536
-0.0399564
-0.0419085
-0.0422338
-0.0412578
-0.0380043
-0.0334494
-0.0282438
-0.0227128
-0.0175072
-0.013603
-0.0106748
-0.00872273
-0.00807203
-0.00774668
-0.00774668
-0.00774668
-0.00872273
-0.0110002
-0.0139283
-0.0168565
-0.0197846
-0.021086
-0.0217367
-0.0220621
-0.0227128
-0.0246649
-0.0269424
-0.0292198
-0.0308466
-0.0314973
-0.0308466
-0.0292198
-0.026617
-0.0236889
-0.0207607
-0.0175072
-0.014579
-0.0126269
-0.0113255
-0.0100241
-0.00872273
-0.00677062
-0.00546922
-0.00514387
-0.00611992
-0.00774668
-0.0100241
-0.0123016
-0.014579
-0.0165311
-0.0178325
-0.0181579
-0.0175072
-0.0158804
-0.0129523
-0.00904808
-0.00449317
0.000387087
0.0055927
0.010473
0.0143772
0.01698
0.0186067
0.0192574
0.0195828
0.0202335
0.0212095
0.0221856
0.0231616
0.023487
0.0228363
0.0212095
0.0176307
0.0130758
0.00787015
0.00266454
-0.00221572
-0.00579457
-0.00904808
-0.0110002
-0.0126269
-0.013603
-0.014579
-0.0149044
-0.0149044
-0.0152297
-0.0155551
-0.0168565
-0.0181579
-0.0197846
-0.0214114
-0.0233635
-0.025641
-0.0285691
-0.0314973
-0.0337747
-0.0354015
-0.0367029
-0.0370282
-0.0370282
-0.0367029
-0.0357268
-0.0344254
-0.0324733
-0.0298705
-0.0269424
-0.0233635
-0.0191339
-0.0139283
-0.00807203
-0.00156502
0.00591805
0.0130758
0.0195828
0.0254391
0.029994
0.0332475
0.0351996
0.0361756
0.0358503
0.0348742
0.0335728
0.0316207
0.0286926
0.0251137
0.0208842
0.0166546
0.0127504
0.00852085
0.00461664
0.000712437
-0.00286642
-0.00546922
-0.00709598
-0.00742133
-0.00611992
-0.00384247
-0.00123967
0.00201384
0.00526734
0.0075448
0.0088462
0.0094969
0.00982225
0.0107983
0.0120997
0.0143772
0.0173053
0.0205588
0.0238123
0.0267405
0.0290179
0.029994
0.029994
0.0283672
0.0251137
0.0202335
0.0150279
0.0094969
0.00429129
6.17361E-005
-0.00319177
-0.00579457
-0.00742133
-0.00937343
-0.0113255
-0.0132776
-0.0152297
-0.0165311
-0.0175072
-0.0184832
-0.0188086
-0.0184832
-0.0178325
-0.0162058
-0.0142537
-0.0116509
-0.00872273
-0.00546922
-0.00189037
0.00298989
0.00917155
0.0160039
0.0238123
0.0319461
0.0404052
0.0478883
0.0543953
0.0589502
0.061553
0.0631797
0.0644811
0.0644811
0.0638304
0.0618783
0.0579741
0.0527685
0.0452855
0.0368263
0.0273912
0.0182814
0.0094969
0.00201384
-0.00384247
-0.00839738
-0.0110002
-0.0119762
-0.0119762
-0.0110002
-0.00904808
-0.00644527
-0.00254107
0.00266454
0.0094969
0.0176307
0.0267405
0.036501
0.0459362
0.0540699
0.0599262
0.0641558
0.0667586
0.0677346
0.0674093
0.0664332
0.0641558
0.0605769
0.056022
0.0508164
0.0449601
0.0387784
0.0325968
0.0264151
0.0215349
0.0176307
0.0150279
0.0140518
0.0147025
0.01698
0.0205588
0.024463
0.0283672
0.0316207
0.0342235
0.0358503
0.036501
0.036501
0.036501
0.036501
0.0361756
0.0358503
0.0351996
0.0348742
0.0351996
0.0361756
0.037477
0.0391038
0.0397545
0.0394291
0.0378024
0.0351996
0.0319461
0.0283672
0.0257644
0.024463
0.0247884
0.0264151
0.0280419
0.0296686
0.0312954
0.0322714
0.0332475
0.0338982
0.0338982
0.0342235
0.0348742
0.0358503
0.0378024
0.0400799
0.0436587
0.0478883
0.0530939
0.0586248
0.0641558
0.0693614
0.0739163
0.0778205
0.0807487
0.0820501
0.0813994
0.0791219
0.0748924
0.0696867
0.0644811
0.0596009
0.0547206
0.0498404
0.0446348
0.0391038
0.0329221
0.0264151
0.0195828
0.0124251
0.00461664
-0.00319177
-0.0100241
-0.0155551
-0.0188086
-0.0194593
-0.0181579
-0.014579
-0.00969878
-0.00384247
0.00201384
0.00852085
0.0147025
0.0202335
0.0254391
0.029994
0.0342235
0.037477
0.0404052
0.0423573
0.0436587
0.0443094
0.0446348
0.0449601
0.0456108
0.0462615
0.0462615
0.0449601
0.0426827
0.0387784
0.0338982
0.0283672
0.0225109
0.0173053
0.0127504
0.0088462
0.00591805
0.00364059
0.00201384
0.00136314
0.00136314
0.00266454
0.00396594
0.00591805
0.00787015
0.00982225
0.0120997
0.0147025
0.01698
0.0195828
0.0221856
0.0247884
0.0273912
0.0303193
0.0335728
0.0371517
0.0410559
0.0446348
0.0475629
0.0504911
0.0524432
0.0534192
0.0534192
0.0524432
0.0498404
0.0462615
0.0410559
0.0355249
0.0296686
0.0241377
0.0192574
0.0150279
0.0124251
0.010473
0.00917155
0.0075448
0.00591805
0.00429129
0.00331524
0.00331524
0.00461664
0.0075448
0.0117744
0.01698
0.0228363
0.0286926
0.0335728
0.037477
0.0397545
0.0407306
0.0400799
0.0387784
0.0361756
0.0329221
0.0290179
0.0241377
0.0189321
0.0127504
0.0055927
-0.00156502
-0.00807203
-0.0142537
-0.0191339
-0.0223875
-0.0240142
-0.0240142
-0.0223875
-0.0188086
-0.0139283
-0.00839738
-0.00189037
0.00591805
0.0147025
0.0247884
0.0358503
0.0469122
0.0576488
0.0670839
0.0748924
0.080098
0.0830261
0.0843275
0.0840022
0.0833515
0.0823754
0.0820501
0.0817247
0.081074
0.080098
0.0781459
0.0752177
0.0713135
0.0670839
0.0622037
0.0582995
0.055046
0.0537446
0.0540699
0.0553713
0.0573234
0.0592755
0.0612276
0.0631797
0.0648065
0.0661079
0.0670839
0.0677346
0.0683853
0.0687107
0.0693614
0.069036
0.06806
0.0661079
0.0631797
0.0605769
0.0576488
0.056022
0.055046
0.055046
0.0553713
0.0556967
0.056022
0.056022
0.055046
0.0537446
0.0527685
0.0524432
0.0527685
0.0534192
0.0540699
0.055046
0.0566727
0.0596009
0.0635051
0.0687107
0.074567
0.0804233
0.0862796
0.0918106
0.0966908
0.100595
0.103198
0.104499
0.104825
0.10515
0.105475
0.10515
0.104499
0.103198
0.101571
0.099619
0.0973415
0.0947387
0.0914852
0.0882317
0.0849782
0.0813994
0.0781459
0.0748924
0.0716389
0.0693614
0.06806
0.0687107
0.0706628
0.0732656
0.0758684
0.0784712
0.0807487
0.0823754
0.0830261
0.0827008
0.0813994
0.0791219
0.0761938
0.0726149
0.069036
0.0651318
0.0612276
0.0566727
0.0521178
0.0469122
0.0410559
0.0345489
0.0273912
0.0195828
0.0120997
0.00429129
-0.00254107
-0.00872273
-0.0139283
-0.0178325
-0.02011
-0.0207607
-0.02011
-0.0184832
-0.0171818
-0.0155551
-0.013603
-0.0113255
-0.00839738
-0.00449317
-0.000914315
0.00364059
0.0088462
0.0140518
0.0189321
0.0231616
0.0270658
0.0303193
0.0329221
0.0345489
0.0358503
0.0361756
0.0358503
0.0348742
0.0335728
0.0329221
0.0332475
0.0345489
0.0358503
0.0371517
0.0381277
0.0384531
0.0384531
0.0394291
0.0410559
0.0439841
0.0478883
0.0524432
0.0573234
0.061553
0.0651318
0.0677346
0.069036
0.0693614
0.0683853
0.0664332
0.0638304
0.0605769
0.0569981
0.0530939
0.0488643
0.0433334
0.0371517
0.0306447
0.024463
0.0199081
0.0166546
0.0153532
0.0160039
0.0176307
0.0202335
0.0225109
0.0238123
0.0238123
0.0221856
0.0199081
0.01698
0.0137265
0.010473
0.0068941
0.00331524
-0.000588965
-0.00449317
-0.00872273
-0.0129523
-0.0171818
-0.021086
-0.0240142
-0.0249903
-0.0236889
-0.0207607
-0.0162058
-0.0110002
-0.00579457
-0.000914315
0.00461664
0.0107983
0.0186067
0.0273912
0.0368263
0.0465869
0.0556967
0.0638304
0.0706628
0.0758684
0.0797726
0.0813994
0.081074
0.0787966
0.074567
0.0696867
0.0641558
0.0589502
0.0547206
0.0514671
0.0498404
0.048539
0.0472376
0.0459362
0.0446348
0.0433334
0.0423573
0.042032
0.0413813
0.0404052
0.0394291
0.0381277
0.0361756
0.0342235
0.0322714
0.0306447
0.029994
0.0296686
0.029994
0.03097
0.0322714
0.0338982
0.0351996
0.0358503
0.0361756
0.036501
0.0378024
0.0400799
0.0436587
0.0472376
0.0504911
0.0524432
0.0527685
0.0517925
0.0491897
0.0459362
0.0426827
0.0391038
0.0358503
0.0329221
0.029994
0.0267405
0.023487
0.0199081
0.0163293
0.0127504
0.0111237
0.0120997
0.0160039
0.023487
0.0342235
0.0478883
0.0635051
0.0817247
0.101896
0.124346
0.148422
0.17445
0.201779
0.231061
0.261969
0.295155
0.330618
0.368684
0.408377
0.449371
0.491992
0.534613
0.576583
0.616601
0.654016
0.687202
0.715833
0.739258
0.757152
0.769516
0.776673
0.778951
0.776023
0.767564
0.753574
0.733076
0.706398
0.673537
0.634821
0.589922
0.540144
0.486135
0.429199
0.371287
0.3137
0.256763
0.201779
0.149398
0.099619
0.0537446
0.011449
-0.025641
-0.0578507
-0.0845294
-0.105352
-0.119993
-0.128777
-0.132031
-0.130078
-0.123246
-0.112184
-0.0972181
-0.0799745
-0.0617549
-0.0435352
-0.0253156
-0.00807203
0.0081955
0.0228363
0.0355249
0.0459362
0.0540699
0.0602516
0.0644811
0.0674093
0.0683853
0.0670839
0.0628544
0.056022
0.0469122
0.0361756
0.0251137
0.0140518
0.00429129
-0.00384247
-0.0106748
-0.0158804
-0.0188086
-0.02011
-0.02011
-0.0194593
-0.0184832
-0.0171818
-0.0152297
-0.0132776
-0.0100241
-0.00579457
-0.000588965
0.00591805
0.0130758
0.0199081
0.0254391
0.0303193
0.0335728
0.0358503
0.037477
0.0387784
0.0400799
0.0417066
0.043008
0.0439841
0.0439841
0.0436587
0.043008
0.042032
0.0410559
0.0397545
0.0391038
0.0394291
0.0407306
0.0426827
0.0443094
0.0459362
0.0472376
0.0488643
0.0504911
0.0524432
0.055046
0.0579741
0.061553
0.0654572
0.0693614
0.0729403
0.0755431
0.0771698
0.0781459
0.0781459
0.0774952
0.0755431
0.0726149
0.069036
0.0648065
0.0596009
0.0540699
0.0482136
0.0423573
0.037477
0.0335728
0.0306447
0.0286926
0.0273912
0.0257644
0.024463
0.0231616
0.0225109
0.0221856
0.0221856
0.0225109
0.0225109
0.0218602
0.0205588
0.0192574
0.0189321
0.0202335
0.0225109
0.0257644
0.0296686
0.0338982
0.0381277
0.0423573
0.0465869
0.0514671
0.0569981
0.0628544
0.0693614
0.0752177
0.0804233
0.0843275
0.0869303
0.0885571
0.0892078
0.0892078
0.0888824
0.0888824
0.0885571
0.0879064
0.086605
0.0849782
0.0830261
0.081074
0.0787966
0.0765191
0.074567
0.0732656
0.0739163
0.0768445
0.0817247
0.0879064
0.0953894
0.104174
0.113934
0.12402
0.134432
0.143867
0.152
0.158182
0.162737
0.165991
0.167292
0.166967
0.165665
0.163713
0.161436
0.159483
0.157857
0.156555
0.154929
0.153302
0.15135
0.150048
0.150374
0.151675
0.154278
0.158182
0.163062
0.168919
0.1751
0.180957
0.187138
0.192995
0.199502
0.20731
0.216094
0.225204
0.233013
0.238869
0.242448
0.243749
0.243749
0.242773
0.241797
0.240821
0.240496
0.240821
0.242448
0.245701
0.249931
0.255137
0.260993
0.2675
0.274332
0.281815
0.289624
0.298083
0.306542
0.314676
0.322484
0.329316
0.335173
0.340053
0.344283
0.347861
0.350464
0.352742
0.354368
0.354694
0.353718
0.35144
0.348187
0.344283
0.339402
0.334522
0.329967
0.325412
0.320857
0.315652
0.309795
0.303614
0.297432
0.29125
0.285394
0.279538
0.273682
0.266849
0.25839
0.248955
0.237893
0.226506
0.214793
0.204057
0.193971
0.18421
0.17445
0.164689
0.154929
0.144843
0.135408
0.126298
0.118164
0.110356
0.103198
0.0960401
0.0898585
0.0836768
0.0778205
0.0722896
0.0664332
0.0599262
0.0524432
0.0443094
0.0355249
0.0260898
0.0160039
0.0055927
-0.00514387
-0.0165311
-0.0282438
-0.0402817
-0.0513436
-0.0617549
-0.0705393
-0.0780224
-0.0851801
-0.0920125
-0.0981941
-0.103725
-0.108605
-0.112835
-0.115763
-0.117715
-0.119017
-0.119993
-0.120969
-0.121619
-0.12227
-0.122921
-0.123246
-0.122921
-0.122595
-0.121619
-0.120969
-0.120643
-0.120318
-0.119667
-0.118691
-0.117715
-0.116088
-0.114136
-0.111208
-0.107629
-0.103074
-0.0981941
-0.0926632
-0.0874576
-0.0825773
-0.0773717
-0.0728168
-0.0692379
-0.0666351
-0.0650084
-0.0640323
-0.0633816
-0.0627309
-0.0624056
-0.0617549
-0.0614295
-0.0611042
-0.0604535
-0.0604535
-0.0614295
-0.0630563
-0.0656591
-0.0679365
-0.070214
-0.0728168
-0.0747689
-0.076721
-0.077697
-0.077697
-0.0763956
-0.0747689
-0.0731421
-0.0718407
-0.07119
-0.0715154
-0.0724914
-0.0737928
-0.0754196
-0.0770463
-0.0786731
-0.0802998
-0.0806252
-0.0799745
-0.0780224
-0.0747689
-0.070214
-0.0653337
-0.0611042
-0.0575253
-0.0545972
-0.0523197
-0.0500422
-0.0474394
-0.0448366
-0.0419085
-0.0383296
-0.0344254
-0.0308466
-0.0279184
-0.0262917
-0.026617
-0.0285691
-0.0324733
-0.0376789
-0.0441859
-0.0513436
-0.0585014
-0.0653337
-0.0718407
-0.0780224
-0.0851801
-0.0929885
-0.102424
-0.111859
-0.120969
-0.128126
-0.133332
-0.135609
-0.134959
-0.132031
-0.12715
-0.120969
-0.113486
-0.105677
-0.0968927
-0.0871322
-0.0763956
-0.0650084
-0.0536211
-0.0425592
-0.0324733
-0.0243396
-0.0178325
-0.013603
-0.0110002
-0.00969878
-0.00937343
-0.0100241
-0.0113255
-0.013603
-0.0165311
-0.021086
-0.0269424
-0.0344254
-0.0428845
-0.0510183
-0.058176
-0.063707
-0.0672858
-0.0682619
-0.0669605
-0.0633816
-0.0588267
-0.0539465
-0.0490662
-0.0441859
-0.039631
-0.0354015
-0.032148
-0.0292198
-0.026617
-0.0246649
-0.0230382
-0.0214114
-0.0194593
-0.0178325
-0.0171818
-0.0178325
-0.0204353
-0.0249903
-0.0308466
-0.0363775
-0.0412578
-0.0445113
-0.046138
-0.046138
-0.045162
-0.0441859
-0.0428845
-0.0422338
-0.0425592
-0.0428845
-0.0432099
-0.0428845
-0.0419085
-0.0406071
-0.039631
-0.0389803
-0.0393057
-0.0406071
-0.0428845
-0.0458127
-0.0490662
-0.052645
-0.0565493
-0.0607788
-0.0653337
-0.0698886
-0.0737928
-0.0773717
-0.0799745
-0.0812759
-0.0812759
-0.0796491
-0.0773717
-0.0744435
-0.0708647
-0.0676112
-0.0640323
-0.0601281
-0.0558986
-0.0510183
-0.0454873
-0.0399564
-0.0344254
-0.0298705
-0.0259663
-0.0230382
-0.021086
-0.02011
-0.0194593
-0.0194593
-0.02011
-0.0214114
-0.0233635
-0.0259663
-0.0282438
-0.0301959
-0.0308466
-0.0305212
-0.0288945
-0.0259663
-0.0223875
-0.0184832
-0.014579
-0.0103495
-0.00579457
-0.00123967
0.00298989
0.00656875
0.00852085
0.0094969
0.0101476
0.0107983
0.0111237
0.0101476
0.0075448
0.00364059
-0.00156502
-0.00774668
-0.014579
-0.0217367
-0.0292198
-0.0373536
-0.0464634
-0.0562239
-0.0663098
-0.0757449
-0.0838787
-0.089735
-0.0933139
-0.0955913
-0.096242
-0.096242
-0.0955913
-0.0942899
-0.0929885
-0.0913618
-0.088759
-0.0861562
-0.0835533
-0.0802998
-0.0770463
-0.0728168
-0.0682619
-0.0633816
-0.0585014
-0.0539465
-0.0493915
-0.0458127
-0.0428845
-0.0412578
-0.0406071
-0.0412578
-0.0419085
-0.0425592
-0.0425592
-0.0422338
-0.0412578
-0.0406071
-0.0399564
-0.0393057
-0.038655
-0.0373536
-0.0357268
-0.0347508
-0.0344254
-0.0354015
-0.0373536
-0.0399564
-0.0415831
-0.0419085
-0.0406071
-0.0373536
-0.033124
-0.0288945
-0.0253156
-0.0227128
-0.0214114
-0.0207607
-0.0207607
-0.0214114
-0.0223875
-0.0236889
-0.0253156
-0.026617
-0.0275931
-0.0285691
-0.0298705
-0.0308466
-0.0324733
-0.0337747
-0.0350761
-0.0370282
-0.0393057
-0.0422338
-0.0458127
-0.0490662
-0.051669
-0.0532957
-0.0536211
-0.0532957
-0.0523197
-0.0513436
-0.0497169
-0.0474394
-0.0438606
-0.0389803
-0.0337747
-0.0295452
-0.0269424
-0.0262917
-0.026617
-0.0275931
-0.0288945
-0.0305212
-0.0324733
-0.0344254
-0.0363775
-0.0380043
-0.039631
-0.0415831
-0.0445113
-0.0477648
-0.0513436
-0.0539465
-0.0555732
-0.0562239
-0.0558986
-0.0545972
-0.052645
-0.0500422
-0.0467887
-0.0435352
-0.0406071
-0.0380043
-0.0360522
-0.0341001
-0.0324733
-0.0301959
-0.0279184
-0.0253156
-0.0236889
-0.0227128
-0.0227128
-0.0240142
-0.026617
-0.0301959
-0.0347508
-0.0399564
-0.045162
-0.0500422
-0.0542718
-0.058176
-0.0611042
-0.0630563
-0.0643577
-0.0650084
-0.064683
-0.0640323
-0.0627309
-0.0611042
-0.058176
-0.0542718
-0.0490662
-0.0428845
-0.0363775
-0.0301959
-0.0249903
-0.0207607
-0.0175072
-0.0152297
-0.013603
-0.0132776
-0.0142537
-0.0162058
-0.0191339
-0.0227128
-0.026617
-0.0308466
-0.0350761
-0.0393057
-0.0435352
-0.0477648
-0.051669
-0.0549225
-0.0575253
-0.0588267
-0.0591521
-0.0575253
-0.0542718
-0.0493915
-0.0432099
-0.0360522
-0.0282438
-0.02011
-0.0116509
-0.00319177
0.00429129
0.011449
0.017956
0.0241377
0.0296686
0.0338982
0.0361756
0.0371517
0.036501
0.0348742
0.0325968
0.0306447
0.0286926
0.0267405
0.0251137
0.0238123
0.0228363
0.0218602
0.0208842
0.0202335
0.0202335
0.0205588
0.0212095
0.0225109
0.0247884
0.0280419
0.0316207
0.0358503
0.0397545
0.0433334
0.0456108
0.0462615
0.0456108
0.0439841
0.0413813
0.0387784
0.0361756
0.0338982
0.0319461
0.029994
0.0277165
0.0247884
0.0212095
0.01698
0.0124251
0.00852085
0.0055927
0.00396594
0.00266454
0.00103779
-0.000914315
-0.00254107
-0.00449317
-0.00611992
-0.00807203
-0.0113255
-0.0155551
-0.0207607
-0.026617
-0.032148
-0.0373536
-0.0422338
-0.0464634
-0.0500422
-0.0532957
-0.0562239
-0.0598028
-0.063707
-0.0676112
-0.0705393
-0.0721661
-0.0724914
-0.0705393
-0.0669605
-0.0617549
-0.0555732
-0.0493915
-0.0432099
-0.0373536
-0.0318226
-0.0272677
-0.0233635
-0.021086
-0.0204353
-0.0207607
-0.0220621
-0.0240142
-0.0262917
-0.0288945
-0.0318226
-0.0347508
-0.0380043
-0.0412578
-0.0448366
-0.0474394
-0.0497169
-0.0510183
-0.0513436
-0.0513436
-0.0510183
-0.0506929
-0.0503676
-0.0493915
-0.0480901
-0.0464634
-0.0445113
-0.0432099
-0.0415831
-0.0406071
-0.039631
-0.0393057
-0.0402817
-0.0425592
-0.0458127
-0.0500422
-0.0549225
-0.0598028
-0.064683
-0.0689126
-0.0724914
-0.0747689
-0.0763956
-0.077697
-0.0783477
-0.0789984
-0.0799745
-0.0806252
-0.0809505
-0.0812759
-0.0812759
-0.0816012
-0.0822519
-0.0829026
-0.0835533
-0.0829026
-0.0806252
-0.0773717
-0.0728168
-0.0682619
-0.0643577
-0.0620802
-0.0617549
-0.0627309
-0.0643577
-0.0659844
-0.0666351
-0.0659844
-0.0640323
-0.0604535
-0.0562239
-0.0523197
-0.0490662
-0.0471141
-0.046138
-0.0458127
-0.0454873
-0.045162
-0.0438606
-0.0415831
-0.038655
-0.0354015
-0.0327987
-0.0314973
-0.0308466
-0.0308466
-0.0305212
-0.0298705
-0.0288945
-0.0282438
-0.0279184
-0.0288945
-0.0305212
-0.033124
-0.0360522
-0.0393057
-0.0425592
-0.0458127
-0.0497169
-0.0545972
-0.0601281
-0.0656591
-0.0705393
-0.0741182
-0.0757449
-0.0754196
-0.0737928
-0.0715154
-0.0682619
-0.0656591
-0.0640323
-0.0640323
-0.0653337
-0.0676112
-0.0698886
-0.0718407
-0.0734675
-0.0741182
-0.0741182
-0.0728168
-0.0708647
-0.0679365
-0.064683
-0.0614295
-0.058176
-0.0558986
-0.0545972
-0.0539465
-0.0539465
-0.0549225
-0.0565493
-0.0585014
-0.0607788
-0.0627309
-0.0640323
-0.0643577
-0.064683
-0.0653337
-0.0672858
-0.0705393
-0.0750942
-0.0802998
-0.0861562
-0.0923378
-0.0981941
-0.103074
-0.106979
-0.109581
-0.110557
-0.110232
-0.10828
-0.104376
-0.0985195
-0.089735
-0.0789984
-0.0659844
-0.0510183
-0.0341001
-0.0162058
0.00298989
0.0241377
0.0475629
0.073591
0.101896
0.132805
0.165991
0.200803
0.237242
0.274983
0.314676
0.35567
0.39764
0.439936
0.48093
0.519972
0.555435
0.586994
0.613998
0.637098
0.655968
0.670935
0.68102
0.686226
0.685575
0.678418
0.664428
0.64393
0.616276
0.582439
0.543397
0.500125
0.4536
0.404798
0.355019
0.30459
0.25416
0.203731
0.153627
0.104499
0.0573234
0.0130758
-0.026617
-0.0617549
-0.0916871
-0.116414
-0.13626
-0.151877
-0.163264
-0.171398
-0.176278
-0.178556
-0.17823
-0.174977
-0.169121
-0.160336
-0.1496
-0.137887
-0.125524
-0.113811
-0.102424
-0.0916871
-0.0825773
-0.0754196
-0.070214
-0.0669605
-0.0656591
-0.0659844
-0.0676112
-0.0698886
-0.0721661
-0.0747689
-0.0773717
-0.0806252
-0.0838787
-0.0874576
-0.0910364
-0.0942899
-0.0968927
-0.0988448
-0.0994955
-0.0994955
-0.0985195
-0.0972181
-0.0946153
-0.0913618
-0.0871322
-0.0825773
-0.0780224
-0.0737928
-0.0692379
-0.0643577
-0.0591521
-0.0536211
-0.0480901
-0.0428845
-0.038655
-0.0350761
-0.0324733
-0.0308466
-0.0301959
-0.0311719
-0.0334494
-0.0370282
-0.0419085
-0.0474394
-0.052645
-0.0572
-0.0598028
-0.0617549
-0.0630563
-0.064683
-0.0663098
-0.0692379
-0.0728168
-0.0770463
-0.0809505
-0.0838787
-0.084204
-0.0822519
-0.077697
-0.07119
-0.063707
-0.0555732
-0.0471141
-0.0383296
-0.0295452
-0.0217367
-0.014579
-0.00904808
-0.00449317
-0.000914315
0.00233919
0.00494199
0.00656875
0.00721945
0.00591805
0.00298989
-0.00156502
-0.00709598
-0.0132776
-0.0191339
-0.0243396
-0.0288945
-0.0324733
-0.0350761
-0.0370282
-0.0380043
-0.0383296
-0.0383296
-0.0380043
-0.0380043
-0.0376789
-0.0376789
-0.0370282
-0.0357268
-0.0347508
-0.0334494
-0.0324733
-0.0318226
-0.0311719
-0.0305212
-0.0301959
-0.0301959
-0.0308466
-0.0318226
-0.033124
-0.0347508
-0.0367029
-0.0380043
-0.0380043
-0.0357268
-0.0311719
-0.0253156
-0.0191339
-0.013603
-0.00904808
-0.00449317
-0.000263614
0.00461664
0.00917155
0.0137265
0.017956
0.0218602
0.0254391
0.0283672
0.0306447
0.0322714
0.0332475
0.0335728
0.0342235
0.0348742
0.036501
0.0384531
0.0413813
0.0449601
0.0488643
0.0537446
0.0589502
0.0648065
0.0706628
0.0765191
0.0817247
0.086605
0.0911599
0.0957148
0.10027
0.104499
0.108729
0.112633
0.116537
0.119465
0.122394
0.124996
0.127924
0.131829
0.136709
0.141915
0.14712
0.151675
0.155905
0.159809
0.163388
0.165991
0.167617
0.168593
0.169244
0.169569
0.169244
0.169244
0.168919
0.168268
0.166967
0.165665
0.164038
0.163062
0.163388
0.16534
0.169244
0.174775
0.181607
0.189416
0.196899
0.204057
0.210564
0.216745
0.222927
0.229109
0.23529
0.241146
0.246352
0.251558
0.256438
0.261644
0.266524
0.271079
0.274983
0.277911
0.279538
0.279863
0.278562
0.275959
0.273031
0.269777
0.2675
0.265873
0.265548
0.265548
0.265548
0.264246
0.261318
0.256113
0.248304
0.238218
0.22618
0.213166
0.198851
0.183559
0.168268
0.152976
0.138336
0.124346
0.111332
0.0992936
0.087581
0.0761938
0.0651318
0.055046
0.0452855
0.0361756
0.0283672
0.0218602
0.0166546
0.0127504
0.00982225
0.0075448
0.0055927
0.00331524
0.000387087
-0.00286642
-0.00742133
-0.0129523
-0.0188086
-0.0253156
-0.0324733
-0.039631
-0.0464634
-0.0532957
-0.0601281
-0.0672858
-0.0747689
-0.083228
-0.0920125
-0.101448
-0.110883
-0.120318
-0.129753
-0.138863
-0.146997
-0.15448
-0.160987
-0.165542
-0.167819
-0.167819
-0.166192
-0.162939
-0.159035
-0.154154
-0.148949
-0.143418
-0.137887
-0.132356
-0.126825
-0.12227
-0.118691
-0.115763
-0.113811
-0.112184
-0.111208
-0.111533
-0.113486
-0.117064
-0.121619
-0.12715
-0.132681
-0.137562
-0.141791
-0.14537
-0.149274
-0.152202
-0.15513
-0.157408
-0.159685
-0.161637
-0.162614
-0.161963
-0.159035
-0.153178
-0.146021
-0.137562
-0.129428
-0.12227
-0.116414
-0.111859
-0.10828
-0.106328
-0.105026
-0.10405
-0.103074
-0.102424
-0.101122
-0.0994955
-0.0975434
-0.096242
-0.0955913
-0.0959167
-0.0968927
-0.0978688
-0.0978688
-0.0975434
-0.0965674
-0.0949406
-0.0936392
-0.0920125
-0.0916871
-0.0916871
-0.0929885
-0.0942899
-0.0965674
-0.0988448
-0.101773
-0.104376
-0.106328
-0.10828
-0.110232
-0.11316
-0.116414
-0.120318
-0.124222
-0.127801
-0.130404
-0.131705
-0.131705
-0.130078
-0.127476
-0.123897
-0.119993
-0.115763
-0.11251
-0.109907
-0.108605
-0.107304
-0.106328
-0.105352
-0.103725
-0.102098
-0.100146
-0.0988448
-0.0988448
-0.100472
-0.10405
-0.108605
-0.114462
-0.120318
-0.126825
-0.133007
-0.139188
-0.144394
-0.148623
-0.151552
-0.152853
-0.152202
-0.149925
-0.146346
-0.142116
-0.138212
-0.134633
-0.131705
-0.128777
-0.125524
-0.121945
-0.117715
-0.112835
-0.107629
-0.103074
-0.0988448
-0.0949406
-0.0916871
-0.0884336
-0.0858308
-0.0835533
-0.0816012
-0.0802998
-0.0793238
-0.0780224
-0.0763956
-0.0744435
-0.0715154
-0.0689126
-0.0659844
-0.063707
-0.0614295
-0.0601281
-0.0594774
-0.0601281
-0.0614295
-0.0633816
-0.0656591
-0.0679365
-0.0698886
-0.0715154
-0.0731421
-0.0747689
-0.0770463
-0.0796491
-0.0829026
-0.0868069
-0.0910364
-0.0946153
-0.0978688
-0.100146
-0.101448
-0.102749
-0.10405
-0.105026
-0.106328
-0.107955
-0.109907
-0.111859
-0.11316
-0.114136
-0.114462
-0.115112
-0.115763
-0.116739
-0.11739
-0.118366
-0.118366
-0.117064
-0.114787
-0.111533
-0.107304
-0.102749
-0.0981941
-0.0929885
-0.0877829
-0.0822519
-0.076721
-0.0718407
-0.0676112
-0.0643577
-0.0624056
-0.0614295
-0.0611042
-0.0611042
-0.0611042
-0.0614295
-0.0620802
-0.0640323
-0.0669605
-0.0705393
-0.0744435
-0.0783477
-0.0829026
-0.0877829
-0.0929885
-0.0981941
-0.1034
-0.108931
-0.113811
-0.117064
-0.118041
-0.116414
-0.11251
-0.107304
-0.101122
-0.0949406
-0.0900604
-0.0861562
-0.0838787
-0.0822519
-0.0809505
-0.0802998
-0.0793238
-0.0789984
-0.0786731
-0.0786731
-0.0793238
-0.0799745
-0.0812759
-0.0825773
-0.084204
-0.0864815
-0.088759
-0.0910364
-0.0929885
-0.0936392
-0.0939646
-0.0933139
-0.0926632
-0.0910364
-0.0894097
-0.0881083
-0.0868069
-0.0861562
-0.0848548
-0.0838787
-0.0825773
-0.0822519
-0.0825773
-0.084204
-0.0868069
-0.0900604
-0.0933139
-0.0972181
-0.100797
-0.104376
-0.107629
-0.109907
-0.111208
-0.111859
-0.111533
-0.110232
-0.108931
-0.107304
-0.105677
-0.1034
-0.0998209
-0.0955913
-0.0907111
-0.0858308
-0.0812759
-0.077697
-0.0747689
-0.0731421
-0.0721661
-0.0724914
-0.0731421
-0.0750942
-0.0770463
-0.0796491
-0.0819266
-0.0835533
-0.0845294
-0.0845294
-0.0835533
-0.0816012
-0.0793238
-0.0763956
-0.0737928
-0.0718407
-0.0708647
-0.0705393
-0.070214
-0.0698886
-0.0685872
-0.0663098
-0.0630563
-0.0578507
-0.0513436
-0.0445113
-0.038655
-0.0344254
-0.0324733
-0.032148
-0.0334494
-0.0357268
-0.0383296
-0.0412578
-0.0432099
-0.0445113
-0.0448366
-0.045162
-0.046138
-0.0477648
-0.0506929
-0.0539465
-0.0578507
-0.0620802
-0.0663098
-0.0698886
-0.0728168
-0.0750942
-0.0773717
-0.0793238
-0.0806252
-0.0816012
-0.0816012
-0.0819266
-0.0819266
-0.0816012
-0.0812759
-0.0812759
-0.0812759
-0.0822519
-0.0835533
-0.0851801
-0.0861562
-0.0868069
-0.0871322
-0.0864815
-0.0855055
-0.0845294
-0.0835533
-0.083228
-0.0825773
-0.0816012
-0.0799745
-0.077697
-0.0747689
-0.07119
-0.0679365
-0.0643577
-0.0614295
-0.058176
-0.0555732
-0.0532957
-0.0513436
-0.0503676
-0.0506929
-0.052645
-0.0562239
-0.0614295
-0.0672858
-0.0734675
-0.0793238
-0.0845294
-0.0884336
-0.0907111
-0.0920125
-0.0923378
-0.0923378
-0.0913618
-0.089735
-0.0864815
-0.0812759
-0.0741182
-0.0650084
-0.0542718
-0.0419085
-0.0292198
-0.0165311
-0.00579457
0.00266454
0.0094969
0.0143772
0.0173053
0.0186067
0.0192574
0.0192574
0.0189321
0.0176307
0.0143772
0.00917155
0.00201384
-0.00677062
-0.0168565
-0.0275931
-0.0376789
-0.0471141
-0.0558986
-0.0633816
-0.070214
-0.0760703
-0.0809505
-0.0848548
-0.0877829
-0.0903857
-0.0926632
-0.0942899
-0.0955913
-0.0965674
-0.096242
-0.095266
-0.0936392
-0.0910364
-0.0874576
-0.083228
-0.0783477
-0.0734675
-0.0682619
-0.0630563
-0.0575253
-0.051669
-0.0454873
-0.038655
-0.0308466
-0.0233635
-0.0158804
-0.0100241
-0.00546922
-0.00319177
-0.00254107
-0.00319177
-0.00514387
-0.00839738
-0.0129523
-0.0188086
-0.025641
-0.0334494
-0.0415831
-0.0503676
-0.0594774
-0.0679365
-0.0747689
-0.0802998
-0.084204
-0.0868069
-0.0881083
-0.0881083
-0.0858308
-0.0809505
-0.0734675
-0.0643577
-0.0549225
-0.0448366
-0.0347508
-0.0240142
-0.0132776
-0.00254107
0.0068941
0.0160039
0.023487
0.0296686
0.0338982
0.036501
0.0368263
0.0351996
0.0322714
0.0270658
0.0205588
0.0130758
0.00461664
-0.00481852
-0.0149044
-0.0253156
-0.0354015
-0.0441859
-0.0513436
-0.0575253
-0.0624056
-0.0659844
-0.0679365
-0.0682619
-0.0666351
-0.0633816
-0.0591521
-0.0549225
-0.0506929
-0.0458127
-0.0409324
-0.0357268
-0.0301959
-0.0249903
-0.0204353
-0.0165311
-0.013603
-0.0116509
-0.0100241
-0.00969878
-0.0103495
-0.0126269
-0.0155551
-0.0194593
-0.0236889
-0.0282438
-0.0334494
-0.0383296
-0.0435352
-0.0487408
-0.0545972
-0.0601281
-0.0656591
-0.0705393
-0.0744435
-0.077697
-0.0799745
-0.0812759
-0.0819266
-0.0816012
-0.0812759
-0.0809505
-0.0796491
-0.077697
-0.0741182
-0.0685872
-0.0604535
-0.0506929
-0.0399564
-0.0285691
-0.0162058
-0.00416782
0.00787015
0.0195828
0.0303193
0.0404052
0.049515
0.0579741
0.0664332
0.0739163
0.0807487
0.0862796
0.0901838
0.0921359
0.0927866
0.0921359
0.0895331
0.0853036
0.0787966
0.0703374
0.0609023
0.0504911
0.0410559
0.0329221
0.0264151
0.0221856
0.0195828
0.0189321
0.0202335
0.0225109
0.0257644
0.0296686
0.0335728
0.0384531
0.0433334
0.0482136
0.0521178
0.0556967
0.0589502
0.0622037
0.0654572
0.0683853
0.0713135
0.0729403
0.0729403
0.0719642
0.069036
0.0644811
0.0582995
0.0508164
0.0423573
0.0335728
0.024463
0.0160039
0.00787015
0.00103779
-0.00416782
-0.00937343
-0.0142537
-0.0197846
-0.0253156
-0.0311719
-0.0367029
-0.0412578
-0.0448366
-0.0474394
-0.0490662
-0.0500422
-0.0497169
-0.0490662
-0.0477648
-0.0467887
-0.0458127
-0.0445113
-0.0432099
-0.0419085
-0.0406071
-0.0393057
-0.0380043
-0.0363775
-0.0347508
-0.0324733
-0.0298705
-0.0269424
-0.0236889
-0.0207607
-0.0181579
-0.0162058
-0.0152297
-0.014579
-0.0149044
-0.0152297
-0.0158804
-0.0162058
-0.0155551
-0.0139283
-0.0113255
-0.00774668
-0.00416782
-0.00123967
0.000712437
0.00233919
0.00331524
0.00461664
0.00526734
0.0055927
0.00591805
0.0055927
0.00494199
0.00396594
0.00168849
-0.00123967
-0.00481852
-0.00937343
-0.0139283
-0.0191339
-0.0240142
-0.0282438
-0.032148
-0.0350761
-0.0370282
-0.038655
-0.0402817
-0.0412578
-0.0419085
-0.0419085
-0.0406071
-0.038655
-0.0367029
-0.0350761
-0.0341001
-0.0334494
-0.0334494
-0.0334494
-0.0334494
-0.0324733
-0.0311719
-0.0292198
-0.0272677
-0.0243396
-0.021086
-0.0184832
-0.0171818
-0.0181579
-0.021086
-0.0249903
-0.0288945
-0.0327987
-0.0357268
-0.0376789
-0.038655
-0.0389803
-0.039631
-0.0406071
-0.0422338
-0.0441859
-0.0464634
-0.0490662
-0.051669
-0.0539465
-0.0552479
-0.0555732
-0.0545972
-0.052645
-0.0487408
-0.0438606
-0.0376789
-0.0311719
-0.0243396
-0.0175072
-0.0113255
-0.00611992
-0.00221572
0.00168849
0.00526734
0.00917155
0.0124251
0.0156786
0.0182814
0.0202335
0.0215349
0.0228363
0.0241377
0.0251137
0.0254391
0.0251137
0.0238123
0.0218602
0.0189321
0.0160039
0.0130758
0.010473
0.00787015
0.0055927
0.00298989
6.17361E-005
-0.00351712
-0.00807203
-0.0129523
-0.0175072
-0.0214114
-0.0240142
-0.025641
-0.0269424
-0.0275931
-0.0282438
-0.0288945
-0.0301959
-0.0314973
-0.0318226
-0.0308466
-0.0288945
-0.0259663
-0.0233635
-0.0207607
-0.0191339
-0.0178325
-0.0165311
-0.0162058
-0.0165311
-0.0171818
-0.0181579
-0.0197846
-0.0214114
-0.0240142
-0.0269424
-0.0305212
-0.0341001
-0.0370282
-0.0389803
-0.0399564
-0.0383296
-0.0344254
-0.0279184
-0.0191339
-0.00839738
0.00396594
0.0182814
0.0342235
0.0521178
0.0713135
0.0921359
0.115236
0.139962
0.167292
0.196573
0.227156
0.258715
0.291901
0.326063
0.362177
0.399267
0.437333
0.475399
0.513465
0.549579
0.58309
0.613022
0.63905
0.661499
0.68037
0.695987
0.707699
0.714531
0.716158
0.711603
0.700541
0.682322
0.65792
0.627012
0.591224
0.55088
0.507609
0.462385
0.41586
0.369009
0.321508
0.273682
0.22618
0.179655
0.134432
0.0911599
0.0508164
0.0147025
-0.0162058
-0.0415831
-0.0611042
-0.0750942
-0.084204
-0.0903857
-0.0936392
-0.0955913
-0.096242
-0.0959167
-0.0946153
-0.0920125
-0.0884336
-0.0835533
-0.077697
-0.07119
-0.064683
-0.0588267
-0.0536211
-0.0500422
-0.0480901
-0.0477648
-0.0474394
-0.0471141
-0.0454873
-0.0432099
-0.0402817
-0.0373536
-0.0354015
-0.0341001
-0.0337747
-0.0341001
-0.0354015
-0.0373536
-0.0393057
-0.0409324
-0.0419085
-0.0425592
-0.0425592
-0.0422338
-0.0425592
-0.0435352
-0.0454873
-0.0484155
-0.051669
-0.0552479
-0.0588267
-0.0624056
-0.0656591
-0.0682619
-0.0692379
-0.0689126
-0.0672858
-0.0640323
-0.0598028
-0.0545972
-0.0487408
-0.0419085
-0.0344254
-0.026617
-0.0184832
-0.0110002
-0.00384247
0.00201384
0.00721945
0.0117744
0.0156786
0.0192574
0.0218602
0.0241377
0.0251137
0.0254391
0.0247884
0.0231616
0.0215349
0.0195828
0.01698
0.0143772
0.0111237
0.0075448
0.00364059
-0.000914315
-0.00481852
-0.00839738
-0.0113255
-0.0129523
-0.013603
-0.0129523
-0.0119762
-0.0100241
-0.00807203
-0.00579457
-0.00449317
-0.00319177
-0.00254107
-0.00189037
-0.00123967
-0.00123967
-0.00156502
-0.00156502
-0.000914315
0.00136314
0.0055927
0.0111237
0.0173053
0.0231616
0.0286926
0.0329221
0.036501
0.0394291
0.0417066
0.0426827
0.043008
0.0426827
0.0413813
0.0394291
0.0358503
0.0312954
0.0257644
0.0199081
0.0140518
0.00917155
0.0055927
0.00331524
0.00233919
0.00201384
0.00168849
0.00168849
0.00201384
0.00266454
0.00364059
0.00526734
0.0081955
0.0124251
0.0182814
0.0254391
0.0338982
0.0423573
0.0511418
0.0596009
0.0674093
0.0742417
0.0807487
0.086605
0.0914852
0.0947387
0.0966908
0.0976669
0.0983176
0.099619
0.101896
0.105475
0.11003
0.115887
0.121743
0.127599
0.13313
0.138336
0.142891
0.14712
0.15135
0.155579
0.159809
0.164038
0.167617
0.169895
0.171521
0.171521
0.170871
0.169895
0.168268
0.166316
0.164038
0.161436
0.158507
0.155254
0.152326
0.150048
0.148422
0.148422
0.150048
0.152976
0.157857
0.164364
0.171847
0.179981
0.188765
0.1982
0.207961
0.218047
0.228132
0.237242
0.245701
0.253184
0.260342
0.266849
0.273031
0.278887
0.284093
0.288648
0.292552
0.295155
0.296781
0.297107
0.296456
0.295155
0.293203
0.291576
0.289949
0.289298
0.289949
0.291576
0.294179
0.297757
0.301662
0.305891
0.310446
0.315001
0.318905
0.321508
0.32346
0.324436
0.324762
0.324111
0.323135
0.321508
0.318905
0.315977
0.312073
0.307193
0.301011
0.293203
0.283767
0.272055
0.259041
0.244075
0.228458
0.212516
0.196573
0.181607
0.167292
0.153953
0.141915
0.130202
0.118815
0.107102
0.0950641
0.0827008
0.0706628
0.0592755
0.048539
0.0384531
0.029994
0.0231616
0.0186067
0.0153532
0.0127504
0.0107983
0.00787015
0.00429129
-0.000914315
-0.00677062
-0.013603
-0.02011
-0.025641
-0.0295452
-0.032148
-0.0334494
-0.0344254
-0.0350761
-0.0360522
-0.0376789
-0.0399564
-0.0432099
-0.0467887
-0.0503676
-0.0532957
-0.0555732
-0.0575253
-0.0594774
-0.0617549
-0.064683
-0.0685872
-0.0731421
-0.077697
-0.0812759
-0.0835533
-0.0845294
-0.0848548
-0.0848548
-0.0851801
-0.0855055
-0.0861562
-0.0871322
-0.0884336
-0.0900604
-0.0913618
-0.0929885
-0.0936392
-0.0939646
-0.0936392
-0.0926632
-0.0920125
-0.0916871
-0.0926632
-0.095266
-0.0985195
-0.102749
-0.106653
-0.109581
-0.110557
-0.110232
-0.107955
-0.104701
-0.100797
-0.0968927
-0.0936392
-0.0916871
-0.0903857
-0.0890843
-0.0874576
-0.0851801
-0.0829026
-0.0799745
-0.076721
-0.0737928
-0.0715154
-0.0698886
-0.0692379
-0.0685872
-0.0685872
-0.0689126
-0.0698886
-0.0708647
-0.0718407
-0.0724914
-0.0724914
-0.0721661
-0.0718407
-0.0721661
-0.0734675
-0.0754196
-0.0780224
-0.0802998
-0.0822519
-0.0829026
-0.083228
-0.0835533
-0.0835533
-0.0838787
-0.084204
-0.0855055
-0.0868069
-0.0884336
-0.0884336
-0.0871322
-0.0838787
-0.0799745
-0.0757449
-0.0718407
-0.0685872
-0.0650084
-0.0617549
-0.0585014
-0.0552479
-0.0523197
-0.0497169
-0.0477648
-0.0467887
-0.0464634
-0.0467887
-0.0471141
-0.0471141
-0.0474394
-0.0480901
-0.0503676
-0.0539465
-0.058176
-0.0627309
-0.0659844
-0.0679365
-0.0679365
-0.0659844
-0.0630563
-0.0594774
-0.0558986
-0.0523197
-0.0497169
-0.0471141
-0.045162
-0.0432099
-0.0415831
-0.0406071
-0.0406071
-0.0406071
-0.0406071
-0.0409324
-0.0412578
-0.0415831
-0.0415831
-0.0419085
-0.0422338
-0.0432099
-0.0445113
-0.0464634
-0.0493915
-0.0529704
-0.0568746
-0.0601281
-0.0624056
-0.0627309
-0.0617549
-0.0598028
-0.0572
-0.0542718
-0.0513436
-0.0487408
-0.0464634
-0.0454873
-0.045162
-0.0454873
-0.0458127
-0.046138
-0.0464634
-0.046138
-0.0441859
-0.0412578
-0.0380043
-0.0357268
-0.0347508
-0.0347508
-0.0350761
-0.0357268
-0.0360522
-0.0357268
-0.0354015
-0.0354015
-0.0357268
-0.0363775
-0.0376789
-0.0393057
-0.0402817
-0.0406071
-0.0393057
-0.0370282
-0.0347508
-0.0334494
-0.033124
-0.0341001
-0.0357268
-0.0373536
-0.0389803
-0.0402817
-0.0412578
-0.0415831
-0.0419085
-0.0425592
-0.0441859
-0.0467887
-0.0500422
-0.0529704
-0.0545972
-0.0549225
-0.0542718
-0.0536211
-0.0536211
-0.0542718
-0.0558986
-0.0588267
-0.0620802
-0.064683
-0.0666351
-0.0666351
-0.0650084
-0.0617549
-0.0572
-0.052645
-0.0484155
-0.0448366
-0.0412578
-0.0373536
-0.0334494
-0.0288945
-0.0246649
-0.021086
-0.0181579
-0.0165311
-0.0158804
-0.0158804
-0.0165311
-0.0181579
-0.02011
-0.0223875
-0.0246649
-0.0259663
-0.0272677
-0.0282438
-0.0295452
-0.0314973
-0.0334494
-0.0354015
-0.0373536
-0.038655
-0.0393057
-0.038655
-0.0367029
-0.033124
-0.0282438
-0.0223875
-0.0162058
-0.0103495
-0.00514387
-0.000914315
0.00266454
0.0055927
0.0075448
0.0081955
0.0075448
0.00591805
0.00396594
0.00103779
-0.00156502
-0.00416782
-0.00677062
-0.00969878
-0.0126269
-0.0158804
-0.0191339
-0.0217367
-0.0243396
-0.026617
-0.0292198
-0.0327987
-0.0367029
-0.0412578
-0.0458127
-0.0503676
-0.0542718
-0.0578507
-0.0601281
-0.0620802
-0.063707
-0.0656591
-0.0676112
-0.0698886
-0.0721661
-0.0731421
-0.0731421
-0.0718407
-0.070214
-0.0682619
-0.0663098
-0.064683
-0.0627309
-0.0601281
-0.0568746
-0.0536211
-0.0503676
-0.0477648
-0.0454873
-0.0432099
-0.0406071
-0.0380043
-0.0350761
-0.0324733
-0.0301959
-0.0285691
-0.0272677
-0.026617
-0.0262917
-0.0259663
-0.0249903
-0.0236889
-0.0217367
-0.02011
-0.0181579
-0.0162058
-0.0142537
-0.0119762
-0.0100241
-0.00839738
-0.00774668
-0.00807203
-0.00904808
-0.0106748
-0.0123016
-0.0139283
-0.0149044
-0.0158804
-0.0158804
-0.0152297
-0.0139283
-0.0123016
-0.0113255
-0.0110002
-0.0106748
-0.0103495
-0.00969878
-0.00904808
-0.00872273
-0.00839738
-0.00807203
-0.00807203
-0.00807203
-0.00839738
-0.00937343
-0.0113255
-0.0142537
-0.0181579
-0.0227128
-0.0279184
-0.0341001
-0.0406071
-0.0474394
-0.0536211
-0.0588267
-0.0633816
-0.0669605
-0.070214
-0.0724914
-0.0737928
-0.0737928
-0.0721661
-0.0692379
-0.0653337
-0.0611042
-0.0575253
-0.0549225
-0.0532957
-0.0523197
-0.0513436
-0.0500422
-0.0487408
-0.0471141
-0.0458127
-0.0448366
-0.0448366
-0.0454873
-0.0464634
-0.0474394
-0.0480901
-0.0480901
-0.0471141
-0.0458127
-0.0441859
-0.0422338
-0.0393057
-0.0360522
-0.0318226
-0.0272677
-0.0217367
-0.0152297
-0.00774668
-0.000588965
0.0062434
0.0117744
0.0150279
0.0173053
0.0182814
0.0189321
0.0192574
0.0192574
0.017956
0.0160039
0.0127504
0.0088462
0.00494199
0.00168849
-0.00123967
-0.00286642
-0.00449317
-0.00611992
-0.00709598
-0.00839738
-0.00969878
-0.0106748
-0.0116509
-0.0123016
-0.0129523
-0.0142537
-0.0162058
-0.0194593
-0.0236889
-0.0285691
-0.0337747
-0.039631
-0.0458127
-0.051669
-0.0568746
-0.0604535
-0.0624056
-0.0624056
-0.0607788
-0.058176
-0.0552479
-0.0519943
-0.0487408
-0.045162
-0.0412578
-0.0363775
-0.0308466
-0.0249903
-0.0188086
-0.0126269
-0.00677062
-0.00156502
0.00331524
0.00721945
0.00982225
0.0111237
0.0111237
0.00982225
0.0081955
0.0062434
0.00461664
0.00331524
0.00201384
0.00103779
-0.000263614
-0.00156502
-0.00254107
-0.00254107
-0.00221572
-0.00123967
-0.000263614
0.00103779
0.00168849
0.00233919
0.00266454
0.00233919
0.00168849
6.17361E-005
-0.00189037
-0.00384247
-0.00644527
-0.00937343
-0.0123016
-0.0152297
-0.0184832
-0.0214114
-0.0236889
-0.0253156
-0.0262917
-0.0269424
-0.0269424
-0.026617
-0.025641
-0.0243396
-0.0227128
-0.0207607
-0.0188086
-0.0165311
-0.0139283
-0.0106748
-0.00677062
-0.00254107
0.00201384
0.00656875
0.010473
0.0127504
0.0134011
0.0130758
0.0117744
0.0107983
0.010473
0.0101476
0.0101476
0.0101476
0.00982225
0.00917155
0.0081955
0.0068941
0.0055927
0.00494199
0.00494199
0.0062434
0.0088462
0.0130758
0.0189321
0.0257644
0.0332475
0.0410559
0.0488643
0.0566727
0.0644811
0.0719642
0.0791219
0.0859543
0.0921359
0.0970162
0.10027
0.101571
0.101571
0.0992936
0.0960401
0.0914852
0.0862796
0.0807487
0.0752177
0.069036
0.062529
0.0553713
0.0478883
0.0404052
0.0325968
0.0254391
0.0195828
0.0143772
0.0101476
0.00656875
0.00331524
6.17361E-005
-0.00254107
-0.00384247
-0.00384247
-0.00319177
-0.00189037
6.17361E-005
0.00168849
0.00201384
0.000712437
-0.00123967
-0.00319177
-0.00514387
-0.00579457
-0.00579457
-0.00449317
-0.00319177
-0.00221572
-0.000914315
-0.000263614
-0.000263614
-0.00156502
-0.00416782
-0.00872273
-0.0152297
-0.0227128
-0.0311719
-0.039631
-0.0477648
-0.0552479
-0.0627309
-0.0698886
-0.0780224
-0.0861562
-0.0946153
-0.102749
-0.109256
-0.114136
-0.11739
-0.118041
-0.116088
-0.111859
-0.105352
-0.0965674
-0.0858308
-0.0737928
-0.0614295
-0.0490662
-0.0373536
-0.0259663
-0.0152297
-0.00449317
0.00494199
0.0137265
0.0208842
0.0264151
0.0303193
0.0335728
0.0358503
0.037477
0.0381277
0.0371517
0.0348742
0.03097
0.0257644
0.0195828
0.0130758
0.0062434
6.17361E-005
-0.00546922
-0.0103495
-0.0142537
-0.0171818
-0.0191339
-0.0207607
-0.0227128
-0.0249903
-0.0272677
-0.0295452
-0.0311719
-0.0318226
-0.0311719
-0.0288945
-0.025641
-0.0217367
-0.0178325
-0.0139283
-0.0103495
-0.00677062
-0.00286642
0.00103779
0.00591805
0.0111237
0.0163293
0.0208842
0.0241377
0.0254391
0.0251137
0.0238123
0.0218602
0.0195828
0.0173053
0.0153532
0.0137265
0.0127504
0.0107983
0.0081955
0.00396594
-0.00123967
-0.00611992
-0.0103495
-0.0132776
-0.0158804
-0.0188086
-0.0227128
-0.0275931
-0.0337747
-0.0399564
-0.046138
-0.0510183
-0.0539465
-0.0545972
-0.0539465
-0.052645
-0.051669
-0.0519943
-0.0536211
-0.0562239
-0.0594774
-0.0630563
-0.0656591
-0.0676112
-0.0676112
-0.0666351
-0.064683
-0.0627309
-0.0620802
-0.0624056
-0.063707
-0.0659844
-0.0679365
-0.0698886
-0.0708647
-0.07119
-0.070214
-0.0682619
-0.064683
-0.0598028
-0.0545972
-0.0493915
-0.0441859
-0.038655
-0.0327987
-0.0259663
-0.0181579
-0.0100241
-0.00189037
0.0062434
0.0140518
0.0212095
0.0280419
0.0338982
0.0394291
0.0443094
0.0482136
0.0501657
0.0504911
0.0488643
0.0459362
0.0413813
0.0368263
0.0329221
0.0303193
0.0290179
0.0280419
0.0270658
0.0251137
0.0231616
0.0212095
0.0199081
0.0199081
0.0215349
0.0254391
0.0329221
0.0436587
0.0576488
0.0739163
0.0918106
0.111332
0.132479
0.156555
0.182909
0.21219
0.243424
0.276935
0.312398
0.348837
0.386253
0.423343
0.459131
0.492968
0.523876
0.551206
0.575281
0.595453
0.612371
0.625385
0.63417
0.637749
0.636447
0.630266
0.619529
0.603587
0.583415
0.558363
0.529082
0.495571
0.45783
0.417486
0.37454
0.329642
0.283767
0.236917
0.190717
0.146469
0.104825
0.0661079
0.0306447
-0.00189037
-0.0318226
-0.0598028
-0.0848548
-0.106328
-0.123897
-0.136585
-0.144719
-0.148298
-0.147322
-0.142116
-0.133657
-0.122921
-0.110232
-0.0968927
-0.0825773
-0.0685872
-0.0542718
-0.0402817
-0.0262917
-0.0126269
-0.00123967
0.00852085
0.0150279
0.0182814
0.0189321
0.0173053
0.0143772
0.0101476
0.00494199
-0.000588965
-0.00546922
-0.0100241
-0.0139283
-0.0168565
-0.0191339
-0.0204353
-0.021086
-0.0214114
-0.0217367
-0.0220621
-0.0223875
-0.0220621
-0.0214114
-0.0204353
-0.0188086
-0.0178325
-0.0175072
-0.0181579
-0.0197846
-0.0220621
-0.0246649
-0.0275931
-0.0308466
-0.0344254
-0.038655
-0.0435352
-0.0487408
-0.0545972
-0.0601281
-0.0653337
-0.0692379
-0.0718407
-0.0728168
-0.0715154
-0.0682619
-0.0624056
-0.0552479
-0.0474394
-0.039631
-0.032148
-0.0253156
-0.0184832
-0.0116509
-0.00449317
0.00266454
0.0101476
0.0176307
0.0247884
0.0312954
0.037477
0.0423573
0.0465869
0.049515
0.0514671
0.0521178
